1-Feng 1996,4-Sakakibara 1992,5-Sakakibara 1993,6-Schneider 1994,sum,gauss,x
7.951757784366626e-47,4.416973216325296e-62,6.453702087437725e-31,1.4514060088823027e-21,1.451406009527673e-21,2.057820463936865e-31,-140.0
1.096451940181617e-46,6.815871643880307e-62,7.994027012106924e-31,1.6770653590170325e-21,1.6770653598164352e-21,2.5604801402334922e-31,-139.839998399984
1.5111087555113958e-46,1.051040973179833e-61,9.898494959924501e-31,1.937341852537648e-21,1.9373418535274975e-21,3.1847963322482213e-31,-139.679996799968
2.0815244058382672e-46,1.619643737251397e-61,1.2252355193486868e-30,2.237472640988738e-21,2.2374726422139738e-21,3.959936665628014e-31,-139.519995199952
2.8658071154168667e-46,2.494140711977235e-61,1.5160616004663704e-30,2.5834758564293188e-21,2.5834758579453804e-21,4.921994661425009e-31,-139.359993599936
3.943592843276767e-46,3.838168287501686e-61,1.875257774213038e-30,2.982265342678351e-21,2.9822653445536088e-21,6.11561812987266e-31,-139.19999199992
5.423964605264091e-46,5.902400574426331e-61,2.318739490643838e-30,3.441781980608434e-21,3.441781982927173e-21,7.596016569534888e-31,-139.03999039990399
7.456264193564639e-46,9.070577816281376e-61,2.8660898417992383e-30,3.97114396882561e-21,3.9711439716917e-21,9.431434873227614e-31,-138.879988799888
1.0244845009347555e-45,1.3929734305014144e-60,3.541396049166242e-30,4.580818751429083e-21,4.5808187549704794e-21,1.1706200538206701e-30,-138.719987199872
1.406919215276936e-45,2.1377273719912868e-60,4.3742747150611875e-30,5.282819660292394e-21,5.2828196646666684e-21,1.4524475959144541e-30,-138.559985599856
1.9311348157063863e-45,3.2784110840001764e-60,5.401127972729907e-30,6.0909307665817524e-21,6.090930771982881e-21,1.8014877248081593e-30,-138.39998399984
2.6493277595778798e-45,5.024306287513145e-60,6.666681970161574e-30,7.020963921956457e-21,7.020963928623139e-21,2.2336157595742287e-30,-138.239982399824
3.632774582660332e-45,7.694677278740309e-60,8.225870452036457e-30,8.091052521921879e-21,8.09105253014775e-21,2.7684197951442928e-30,-138.079980799808
4.978756362432761e-45,1.1776231081187926e-59,1.0146140000435569e-29,9.321987151025034e-21,9.321987161171175e-21,3.43006025689739e-30,-137.919979199792
6.819977822531068e-45,1.8010419738432978e-59,1.2510270288591481e-29,1.0737598982012479e-20,1.073759899452275e-20,4.2483263954949685e-30,-137.759977599776
9.337373136605745e-45,2.752599049003546e-59,1.5419823136622573e-29,1.2365197610101396e-20,1.2365197625521219e-20,5.259934365932955e-30,-137.59997599976
1.277750707211234e-44,4.204009441093241e-59,1.8999359013773404e-29,1.4236070921980937e-20,1.4236070940980296e-20,6.510121544732218e-30,-137.439974399744
1.747620818551456e-44,6.416320007591532e-59,2.3401589853143173e-29,1.638605564155509e-20,1.638605566495668e-20,8.054603968389186e-30,-137.279972799728
2.3890649295411647e-44,9.78610688713385e-59,2.881367377675908e-29,1.8856188377224558e-20,1.885618840603823e-20,9.961978711024503e-30,-137.11997119971198
3.2642871877430917e-44,1.4915420446698736e-58,3.546490195649533e-29,2.1693448337143977e-20,2.1693448372608878e-20,1.2316671251218978e-29,-136.959969599696
4.4578805948496595e-44,2.271761060528876e-58,4.363608203666406e-29,2.4951604400382562e-20,2.4951604444018642e-20,1.522255012687509e-29,-136.79996799968
6.084826041333287e-44,3.4577326296213314e-58,5.367098834514474e-29,2.8692180956828015e-20,2.8692181010499006e-20,1.8807358317135355e-29,-136.639966399664
8.301327842322799e-44,5.259225243971988e-58,6.59903289745023e-29,3.298555888371241e-20,3.298555894970274e-20,2.3228143884780113e-29,-136.479964799648
1.1319483962836385e-43,7.99380850564333e-58,8.110877668725342e-29,3.791223024192563e-20,3.7912230323034405e-20,2.867791275199623e-29,-136.31996319963199
1.5427137672723112e-43,1.2141918555104233e-57,9.965572807216765e-29,4.356422778465346e-20,4.356422788430919e-20,3.5393775634298167e-29,-136.159961599616
2.1014726674453506e-43,1.842987953142433e-57,1.2240059777806017e-28,5.0046753212792294e-20,5.0046753335192894e-20,4.3666921024196656e-29,-135.9999599996
2.8611577296770223e-43,2.795498627812687e-57,1.5028362720106846e-28,5.748003132902597e-20,5.748003147930959e-20,5.385481900579014e-29,-135.839958399584
3.8934940784901825e-43,4.2373825754815323e-57,1.8445339600515038e-28,6.600142088419308e-20,6.600142106864648e-20,6.639614939300971e-29,-135.679956799568
5.295621060902465e-43,6.418561035444768e-57,2.263124779188642e-28,7.576781703039678e-20,7.576781725670926e-20,8.182905561107309e-29,-135.519955199552
7.199029393022175e-43,9.715815974070065e-57,2.7757298854501276e-28,8.695838495682018e-20,8.695838523439317e-20,1.0081345699468443e-28,-135.359953599536
9.781617060637953e-43,1.469679008682045e-56,3.403241434999881e-28,9.977766955629898e-20,9.977766989662313e-20,1.2415831173917004e-28,-135.19995199951998
1.3283943827302003e-42,2.221607373325727e-56,4.171143933872064e-28,1.1445913193109333e-19,1.1445913234820772e-19,1.5285491664298844e-28,-135.039950399504
1.8031135130782497e-42,3.355936471971697e-56,5.1105124395121715e-28,1.3126917028371707e-19,1.3126917079476831e-19,1.8811756532322759e-28,-134.879948799488
2.446238345928425e-42,5.06596004132842e-56,6.259225245749006e-28,1.5051169035165512e-19,1.5051169097757764e-19,2.3143317260215343e-28,-134.719947199472
3.317066169962846e-42,7.6420767450200795e-56,7.66343659325963e-28,1.7253329914529493e-19,1.7253329991163858e-19,2.84621819936491e-28,-134.559945599456
4.495615545797762e-42,1.1520269412114969e-55,9.379364500059708e-28,1.9772920546147962e-19,1.9772920639941608e-19,3.49910598007762e-28,-134.39994399943998
6.08981160513957e-42,1.73546349325528e-55,1.1475460337497476e-27,2.265499216117412e-19,2.2654992275928724e-19,4.300236335202538e-28,-134.239942399424
8.245143422160346e-42,2.612582029194224e-55,1.403504069112377e-27,2.5950887318321847e-19,2.5950887458672254e-19,5.282918067202943e-28,-134.079940799408
1.1157637187647207e-41,3.930302648212258e-55,1.715947882866836e-27,2.971910376186809e-19,2.9719103933462875e-19,6.487864169256388e-28,-133.919939199392
1.5091274549576045e-41,5.90858732846448e-55,2.0972073333020877e-27,3.4026274816091035e-19,3.4026275025811767e-19,7.9648196292365325e-28,-133.759937599376
2.0401367014579215e-41,8.876523956258833e-55,2.5622735847623776e-27,3.8948281747940303e-19,3.894828200416766e-19,9.774543066268367e-28,-133.59993599935999
2.756590665843076e-41,1.3326122654628738e-54,3.129366926643357e-27,4.45715155336328e-19,4.457151584656949e-19,1.1991218218633358e-27,-133.439934399344
3.7227593032210897e-41,1.9992462447570565e-54,3.820624309020166e-27,5.099430772368721e-19,5.099430810574964e-19,1.4705387438628754e-27,-133.27993279932798
5.025014251996702e-41,2.997301131478367e-54,4.6629315275946515e-27,5.832855264628656e-19,5.832855311257971e-19,1.80275188699438e-27,-133.119931199312
6.779369449832457e-41,4.490514181919717e-54,5.6889301178825195e-27,6.670154605649438e-19,6.670154662538739e-19,2.209234258653071e-27,-132.959929599296
9.141573805316596e-41,6.723004051482772e-54,6.938235186448579e-27,7.625806856847348e-19,7.625806926229701e-19,2.7064119502052874e-27,-132.79992799928
1.2320612588999772e-40,1.0058478214332335e-53,8.458907823939868e-27,8.716274584432764e-19,8.716274669021843e-19,3.3143041330992685e-27,-132.639926399264
1.659675937461917e-40,1.503844016698888e-53,1.030923466017398e-26,9.96027216065295e-19,9.960272263745297e-19,4.057300151788355e-27,-132.47992479924798
2.234569964947703e-40,2.2468542993161486e-53,1.2559877834269089e-26,1.137906841471738e-18,1.1379068540316157e-18,4.965102731919415e-27,-132.319923199232
3.0070751418333575e-40,3.3546609664723527e-53,1.5296471520167092e-26,1.2996829218958046e-18,1.2996829371922761e-18,6.073872388989038e-27,-132.159921599216
4.044587803134556e-40,5.005229159376392e-53,1.8622756597227635e-26,1.4841005178610447e-18,1.4841005364838013e-18,7.42761544167612e-27,-131.9999199992
5.43730780544292e-40,7.462784529472429e-53,2.2664363597959946e-26,1.6942770248948707e-18,1.6942770475592343e-18,9.07986686044059e-27,-131.839918399184
7.305891767968715e-40,1.1119351139590112e-52,2.7573376311019715e-26,1.9337517840169554e-18,1.933751811590332e-18,1.10957298220878e-26,-131.67991679916798
9.81165373591069e-40,1.6556159192159804e-52,3.3533835096866263e-26,2.20654217982311e-18,2.206542213356945e-18,1.3554346662605703e-26,-131.519915199152
1.3170154080080083e-39,2.4634363648117156e-52,4.076837095723469e-26,2.5172070579901724e-18,2.5172070987585433e-18,1.6551891365049368e-26,-131.35991359913598
1.7669292597204437e-39,3.6628970172244125e-52,4.9546199727478044e-26,2.8709183984796286e-18,2.8709184480258285e-18,2.0205192315919962e-26,-131.19991199912
2.3693386181777443e-39,5.442640826239726e-52,6.019275167400879e-26,3.2735422980045185e-18,3.2735423581972703e-18,2.4656116447217127e-26,-131.039910399104
3.175519379857534e-39,8.081579462497412e-52,7.310126675706607e-26,3.731730446975785e-18,3.731730520077051e-18,3.0076872812837536e-26,-130.87990879908799
4.253848963304017e-39,1.1991801359306054e-51,8.8746751626619e-26,4.2530234338856235e-18,4.253023522632375e-18,3.667642603893545e-26,-130.719907199072
5.6954629099824024e-39,1.7781738138517367e-51,1.0770277315913262e-25,4.8459673758366484e-18,4.845967483539422e-18,4.4708249029875193e-26,-130.55990559905598
7.621766752783028e-39,2.634908877810044e-51,1.3066165752010238e-25,5.520245559819988e-18,5.5202456904816454e-18,5.447969111142397e-26,-130.39990399904
1.0194406427679421e-38,3.901742436056049e-51,1.5845877633539473e-25,6.2868269877921736e-18,6.28682714625095e-18,6.636329401498708e-26,-130.239902399024
1.3628494953725552e-38,5.773686508572576e-51,1.9210173612409624e-25,7.158133952247e-18,7.158134144348735e-18,8.081045562167841e-26,-130.079900799008
1.821014967204925e-38,8.537867444159573e-51,2.3280544791257245e-25,8.148231030816554e-18,8.148231263622001e-18,9.836792243018024e-26,-129.919899198992
2.4319732677260087e-38,1.2616741996827046e-50,2.820342459397645e-25,9.273038181776032e-18,9.273038463810278e-18,1.1969768896145695e-25,-129.75989759897598
3.2462633021604983e-38,1.8631449446521336e-50,3.415524535521286e-25,1.055057095086329e-17,1.0550571292415743e-17,1.4560099896119266e-25,-129.59989599896
4.331001673063884e-38,2.7494616645520407e-50,4.134850678760034e-25,1.200121116769407e-17,1.2001211581179137e-17,1.7704728312343964e-25,-129.43989439894398
5.775274413047151e-38,4.054621332659013e-50,5.003905610810858e-25,1.3648011921817529e-17,1.364801242220809e-17,2.1520903569072174e-25,-129.279892798928
7.69726717988142e-38,5.975228794096224e-50,6.053481850314484e-25,1.5517041069271372e-17,1.5517041674619556e-17,2.6150383312422793e-25,-129.119891198912
1.0253689509286233e-37,8.799548382215254e-50,7.320626297521243e-25,1.7637768035998984e-17,1.7637768768061614e-17,3.1764493856607024e-25,-128.95988959889598
1.3652224686376884e-37,1.2949942310246894e-49,8.849894385330821e-25,2.004349926106776e-17,2.00435001460572e-17,3.8570222376787156e-25,-128.79988799888
1.8167967981521057e-37,1.9044820771109437e-49,1.0694852403867505e-24,2.2771868267296413e-17,2.2771869336781653e-17,4.681754847522554e-25,-128.63988639886398
2.4165119565560237e-37,2.798901095382968e-49,1.2919876438154914e-24,2.586538706749706e-17,2.5865388359484704e-17,5.68082639687864e-25,-128.479884798848
3.2125596823285845e-37,4.11054891160223e-49,1.5602305679550098e-24,2.9372066419823055e-17,2.9372067980053626e-17,6.8906579037521765e-25,-128.31988319883197
4.268675336861004e-37,6.032727303476778e-49,1.8835018959994956e-24,3.3346113345303175e-17,3.3346115228805074e-17,8.35518717928195e-25,-128.15988159881599
5.669107716939685e-37,8.847675267727062e-49,2.272951654389586e-24,3.7848715325407427e-17,3.784871759835908e-17,1.0127400872296396e-24,-127.99987999879998
7.525163787510485e-37,1.2967201534625658e-48,2.741960488606765e-24,4.2948921719281277e-17,4.2948924461241765e-17,1.2271174755783995e-24,-127.83987839878398
9.983822903746041e-37,1.8991748599632402e-48,3.306580068801871e-24,4.8724634192511085e-17,4.8724637499091155e-17,1.4863483448462909e-24,-127.67987679876799
1.3239068963507589e-36,2.7796188668329216e-48,3.986059270546425e-24,5.5263719346578906e-17,5.526372333263818e-17,1.7997052745802877e-24,-127.51987519875199
1.7546790224044635e-36,4.065436246092702e-48,4.803472602382713e-24,6.266525829702141e-17,6.2665263100494e-17,2.1783542028406706e-24,-127.35987359873599
2.3244359703132852e-36,5.941972874877456e-48,5.786470468949947e-24,7.104094968683596e-17,7.104095547330643e-17,2.6357361261260504e-24,-127.19987199871998
3.077635301114123e-36,8.67872207651663e-48,6.968174556522566e-24,8.051668455998706e-17,8.051669152816162e-17,3.1880247416980253e-24,-127.03987039870398
4.072830965489941e-36,1.2667254699002213e-47,8.38824601339981e-24,9.12343136805119e-17,9.123432206875791e-17,3.854674936934901e-24,-126.879868798688
5.387103022164184e-36,1.847612241058244e-47,1.0094159296522302e-23,1.0335363029018776e-16,1.0335364038434706e-16,4.659079914490432e-24,-126.71986719867199
7.121866687020082e-36,2.693027355183061e-47,1.2142720716409455e-23,1.1705459397979968e-16,1.170546061225204e-16,5.629358176153055e-24,-126.55986559865599
9.410486212129255e-36,3.9225844725237684e-47,1.4601878010110386e-23,1.3253982433591425e-16,1.3253983893779227e-16,6.799295675681271e-24,-126.39986399863999
1.2428249103797916e-35,5.709596937314892e-47,1.7552875912732364e-23,1.500373963505554e-16,1.5003741390343132e-16,8.209473313890756e-24,-126.23986239862398
1.6405425536157432e-35,8.305010822047678e-47,2.1092822925580137e-23,1.6980397328269262e-16,1.6980399437551556e-16,9.908615732850258e-24,-126.07986079860798
2.1644358285537077e-35,1.2071925889421727e-46,2.5337746579567343e-23,1.921283167789904e-16,1.92128342116737e-16,1.1955204241759328e-23,-125.91985919859198
2.8541815378744744e-35,1.7535353464433117e-46,3.0426228803853185e-23,2.1733521864313476e-16,2.1733524906936357e-16,1.4419404878035206e-23,-125.75985759857599
3.7618210712142615e-35,2.5453885978968472e-46,3.652372992890859e-23,2.4578990373804897e-16,2.457899402617789e-16,1.7385372313478504e-23,-125.59985599855999
4.955578279671057e-35,3.692285461114722e-46,4.382772984778083e-23,2.779029591701895e-16,2.779030029979194e-16,2.0954001841198406e-23,-125.43985439854399
6.524845170284235e-35,5.3522704725368026e-46,5.2573838479108506e-23,3.14135851201123e-16,3.1413590377496144e-16,2.5246215359962303e-23,-125.27985279852798
8.586689214868045e-35,7.753225935080379e-46,6.304305556666571e-23,3.550070983272345e-16,3.550071613702901e-16,3.0406883505418225e-23,-125.11985119851198
1.1294342200579543e-34,1.122350317168049e-45,7.557039277258933e-23,4.0109917673960687e-16,4.0109925230999963e-16,3.660950533076259e-23,-124.95984959849598
1.4848268201590115e-34,1.6235887500588755e-45,9.055510986730042e-23,4.530662430053986e-16,4.530663335605085e-16,4.4061789765816684e-23,-124.79984799847999
1.9510586686497385e-34,2.3470656591883513e-45,1.0847286263622244e-22,5.116427683927793e-16,5.116428768656419e-16,5.301231013595887e-23,-124.63984639846399
2.5623857953158435e-34,3.390596043497552e-45,1.2989011414174422e-22,5.776531898939282e-16,5.776533197840423e-16,6.375843507053905e-23,-124.47984479844798
3.3635537429491353e-34,4.894726935560457e-45,1.5548122464153317e-22,6.520226947981439e-16,6.520228502793686e-16,7.665577708230607e-23,-124.31984319843198
4.412979278850471e-34,7.06126470776554e-45,1.8604871046361704e-22,7.357892687532054e-16,7.357894548019159e-16,9.212944502476402e-23,-124.15984159841598
5.786887893459058e-34,1.0179773663168124e-44,2.2254725045902538e-22,8.3011715176331385e-16,8.301173743105643e-16,1.1068743979380406e-22,-123.99983999839998
7.584691374559034e-34,1.4665448788183e-44,2.6611212261921373e-22,9.363118626589049e-16,9.363121287710275e-16,1.3293659551817556e-22,-123.83983839838399
9.935973450661987e-34,2.1113206691971936e-44,3.1809287578173946e-22,1.055836970400434e-15,1.0558372884933099e-15,1.5960154282771573e-22,-123.67983679836799
1.300955959343683e-33,3.0374885322388034e-44,3.8009318524313535e-22,1.1903328103302547e-15,1.19033319042344e-15,1.9154725865565882e-22,-123.51983519835198
1.702528658849986e-33,4.3669347275894184e-44,4.540180102852939e-22,1.3416373653638768e-15,1.341637819381887e-15,2.2980587084059353e-22,-123.35983359833598
2.2269267463829423e-33,6.273939987309643e-44,5.421293704683992e-22,1.5118095563349898e-15,1.5118100984643604e-15,2.756085083888625e-22,-123.19983199831998
2.911367941373999e-33,9.007528102872012e-44,6.471122911569271e-22,1.703155212525154e-15,1.703155859637445e-15,3.3042313298312977e-22,-123.03983039830399
3.804240137562971e-33,1.2923272362464457e-43,7.721527430962948e-22,1.918256023082148e-15,1.918256795234891e-15,3.959994581034444e-22,-122.87982879828797
4.9684213026634625e-33,1.852853042055067e-43,9.210297229233128e-22,2.160001802861229e-15,2.1600027238909518e-15,4.744222635770546e-22,-122.71982719827199
6.485576268608231e-33,2.6546731568244136e-43,1.0982239994236732e-21,2.431626442533137e-15,2.4316275407571365e-15,5.681746509058904e-22,-122.55982559825598
8.461714936061319e-33,3.800867655362451e-43,1.3090464936581033e-21,2.7367479529468567e-15,2.7367492619933504e-15,6.802130646880161e-22,-122.39982399823998
1.1034378420322414e-32,5.4382108673563554e-43,1.5597897808732455e-21,3.079413058113008e-15,3.079414617902789e-15,8.14056235305531e-22,-122.23982239822398
1.4381925050523599e-32,7.77554689316296e-43,1.8579068113459433e-21,3.4641468402058563e-15,3.4641486981126676e-15,9.738905865290114e-22,-122.07982079820798
1.8735523493530467e-32,1.110983099298288e-42,2.2122216610922294e-21,3.8960079941551855e-15,3.896010206376847e-15,1.1646951090310234e-21,-121.91981919819199
2.439463403980393e-32,1.5863008822601633e-42,2.6331779593117442e-21,4.380650309219007e-15,4.380652942396967e-15,1.3923892389978777e-21,-121.75981759817599
3.174698203718075e-32,2.2634207094313947e-42,3.1331316180578372e-21,4.924391060978125e-15,4.924394194109743e-15,1.6640079141302401e-21,-121.59981599815998
4.1294313355953223e-32,3.2273540443036914e-42,3.726695634821282e-21,5.534287070092608e-15,5.534290796788243e-15,1.9879087237689174e-21,-121.43981439814398
5.368558818938584e-32,4.5986413701730864e-42,4.431146078313383e-21,6.218219264593376e-15,6.218223695739454e-15,2.3740169449042126e-21,-121.27981279812798
6.975973886314847e-32,6.548081547992817e-42,5.2668999341196554e-21,6.984986671214621e-15,6.984991938114555e-15,2.8341152839359898e-21,-121.11981119811198
9.060071824299587e-32,9.317517620073058e-42,6.2580773177256546e-21,7.84441085910935e-15,7.844417117186668e-15,3.3821863515347706e-21,-120.95980959809597
1.1760833424320878e-31,1.3249148629078995e-41,7.433162701499013e-21,8.80745196716367e-15,8.807459400326371e-15,4.034817315566001e-21,-120.79980799807998
1.5258934928156365e-31,1.8826835473737984e-41,8.825782300451558e-21,9.886337564994857e-15,9.886346390777157e-15,4.81167784067133e-21,-120.63980639806398
1.97874580417036e-31,2.673426746407444e-41,1.0475617678139858e-20,1.1094705728698604e-14,1.1094716204316282e-14,5.736084374691392e-21,-120.47980479804798
2.564693415679759e-31,3.7936814057730266e-41,1.2429479037599473e-20,1.2447763856673498e-14,1.2447776286152536e-14,6.835666130593146e-21,-120.31980319803198
3.3224661930608803e-31,5.379662483839997e-41,1.4742565632460028e-20,1.3962464909693049e-14,1.3962479652258682e-14,8.143150795015257e-21,-120.15980159801597
4.301949898528431e-31,7.623436873577069e-41,1.7479945362896722e-20,1.5657702934263463e-14,1.5657720414208827e-14,9.697291137572057e-21,-119.99979999799999
5.5673662153600764e-31,1.0795635025259337e-40,2.0718291017169385e-20,1.755452992072164e-14,1.7554550639012658e-14,1.1543957376246365e-20,-119.83979839798398
7.201349602161935e-31,1.5277320330270411e-40,2.4547916906566975e-20,1.9676396259223155e-14,1.967642080714006e-14,1.3737424464016003e-20,-119.67979679796798
9.310171139267425e-31,2.160467721291181e-40,2.907516696389727e-20,2.2049417289594974e-14,2.204944636476194e-14,1.6341888505645402e-20,-119.51979519795198
1.2030428527980056e-30,3.0531629615851693e-40,3.442521390019957e-20,2.4702668696991332e-14,2.4702703122205233e-14,1.9433252413950255e-20,-119.35979359793598
1.5537609213100958e-30,4.31175220766367e-40,4.0745338934637783e-20,2.766851378666936e-14,2.7668554532008298e-14,2.3101227814606872e-20,-119.19979199791997
2.0057045288185276e-30,6.0849807622453255e-40,4.82087731524248e-20,3.0982965980336506e-14,3.098301418910966e-14,2.745180827370776e-20,-119.03979039790397
2.5877920827845403e-30,8.581559750173525e-40,5.701919496418544e-20,3.4686090216151276e-14,3.4686147235346246e-14,3.261017834594982e-20,-118.87978879788798
3.3371172691615746e-30,1.209413627218055e-39,6.741599373706401e-20,3.882244730737883e-14,3.882251472337257e-14,3.872413394791947e-20,-118.71978719787198
4.301235492830812e-30,1.7032762502683923e-39,7.968042778939377e-20,4.3441585724134137e-14,4.344166540456193e-14,4.596810241127073e-20,-118.55978559785598
5.541082765823561e-30,2.3971594902592068e-39,9.414282598719668e-20,4.8598585711990365e-14,4.859867985481636e-14,5.454786556753432e-20,-118.39978399783998
7.134700012044236e-30,3.3714007179940287e-39,1.1119100661447458e-19,5.4354661154195205e-14,5.4354772345201824e-14,6.4706106711353e-20,-118.23978239782397
9.181982514668863e-30,4.738331333393611e-39,1.312801155438341e-19,6.077782512501406e-14,6.077795640512961e-14,7.672892269029319e-20,-118.07978079780798
1.181073347882402e-29,6.654908414001294e-39,1.5494411862576444e-19,6.794362567457415e-14,6.794378061869279e-14,9.095346615007937e-20,-117.91977919779198
1.5184375712470387e-29,9.340289687604157e-39,1.8280922135413958e-19,7.593595903554871e-14,7.593614184477009e-14,1.0777691067307433e-19,-117.75977759777598
1.9511770395752572e-29,1.3100269044447544e-38,2.1560953307211142e-19,8.484796815422217e-14,8.484818376375525e-14,1.2766696382093735e-19,-117.59977599775998
2.5059712045445267e-29,1.8361226582755587e-38,2.542053442007966e-19,9.478303522865901e-14,9.478328943400323e-14,1.5117419066628222e-19,-117.43977439774397
3.216882067414626e-29,2.571726446016922e-38,2.996044442914968e-19,1.0585587779123455e-13,1.0585617739567888e-13,1.789464541264122e-19,-117.27977279772797
4.127374408297897e-29,3.599560337659525e-38,3.5298697737375334e-19,1.1819375880820394e-13,1.1819411179518136e-13,2.1174582928173085e-19,-117.11977119771197
5.292882563750458e-29,5.034724961144364e-38,4.1573441053971456e-19,1.3193782229297094e-13,1.3193823802738154e-13,2.5046840801565045e-19,-116.95976959769598
6.7840698863599e-29,7.037260855116189e-38,4.894632836295234e-19,1.4724456704992243e-13,1.4724505651320613e-13,2.9616747907248805e-19,-116.79976799767998
8.690965622619886e-29,9.829539098754993e-38,5.760645141731864e-19,1.642874723911915e-13,1.6428804845570576e-13,3.500806485234343e-19,-116.63976639766398
1.1128212618885966e-28,1.372032078302266e-37,6.777491545970251e-19,1.8325879100868016e-13,1.8325946875783488e-13,4.1366155842330373e-19,-116.47976479764797
1.4241720603362293e-28,1.913801903458019e-37,7.971016406399164e-19,2.043715256483869e-13,2.0437232275002768e-13,4.886169691713782e-19,-116.31976319763197
1.821709704790976e-28,2.6676650870518304e-37,9.371417338461762e-19,2.278616078349764e-13,2.2786254497671047e-13,5.76950096114209e-19,-116.15976159761598
2.32903248643745e-28,3.715927515069888e-37,1.10139655023465e-18,2.539902986431891e-13,2.5399140003973957e-13,6.810112359618293e-19,-115.99975999759997
2.9761278544191215e-28,5.172550847702636e-37,1.2939842856086886e-18,2.8304683342264045e-13,2.8304812740692637e-13,8.035568867691299e-19,-115.83975839758398
3.8010824202640037e-28,7.195217216123432e-37,1.5197114998524879e-18,3.153513344679101e-13,3.1535285417941036e-13,9.478187601744051e-19,-115.67975679756798
4.8522442343137195e-28,1.0001949469171944e-36,1.7841861129784298e-18,3.512580179015726e-13,3.51259802087686e-13,1.1175843104541718e-18,-115.51975519755197
6.190955502115362e-28,1.3893990860259797e-36,2.093948600415653e-18,3.911587235214834e-13,3.9116081747008445e-13,1.3172906665505893e-18,-115.35975359753597
7.895004397170545e-28,1.9287279211171234e-36,2.456624260654887e-18,4.354867990721054e-13,4.354892556963669e-13,1.5521341560801782e-18,-115.19975199751997
1.0062982879725978e-27,2.675571321530858e-36,2.8810998724575497e-18,4.847213733538519e-13,4.847242544537253e-13,1.8281979608116773e-18,-115.03975039750398
1.2819785400604467e-27,3.7090586689333094e-36,3.377728570049081e-18,5.393920558040171e-13,5.393954335325884e-13,2.1526008485229628e-18,-114.87974879748798
1.6323543489209345e-27,5.138217448660111e-36,3.958567352951911e-18,6.000841036920592e-13,6.000880622594138e-13,2.533670394945283e-18,-114.71974719747197
2.0774366532228346e-27,7.113164661810219e-36,4.637652323709037e-18,6.674441018948338e-13,6.674487395471596e-13,2.98114465135969e-18,-114.55974559745597
2.642535332884963e-27,9.840447549862503e-36,5.4313175246484186e-18,7.421862043802796e-13,7.421916356978069e-13,3.506406839452419e-18,-114.39974399743997
3.3596456974213175e-27,1.360405707999409e-35,6.358564138853874e-18,8.250989910613443e-13,8.251053496254866e-13,4.1227583780650815e-18,-114.23974239742398
4.269193314496616e-27,1.87941914292104e-35,7.441487847552222e-18,9.170529986146834e-13,9.170604401025354e-13,4.8457363811559655e-18,-114.07974079740796
5.4222286243159724e-27,2.59465997591734e-35,8.705773315498065e-18,1.019008989226785e-12,1.0190176950001059e-12,5.6934827294896875e-18,-113.91973919739198
6.883185818023096e-27,3.579635984471991e-35,1.0181266129704725e-17,1.132027027068804e-12,1.1320372083349405e-12,6.687172929622655e-18,-113.75973759737597
8.733349214081498e-27,4.935133255659927e-35,1.1902634070139405e-17,1.2572764386491423e-12,1.2572883412832212e-12,7.851514254817096e-18,-113.59973599735997
1.1075206248045356e-26,6.799242145753015e-35,1.3910131372495026e-17,1.396046740095028e-12,1.3960606502264116e-12,9.215324139034517e-18,-113.43973439734397
1.4037910939181464e-26,9.36103219203722e-35,1.6250481685520768e-17,1.5497596219118602e-12,1.5497758723935597e-12,1.081220149621814e-17,-113.27973279732797
1.7784137472398582e-26,1.2879190743630376e-34,1.8977897765901618e-17,1.7199820899169417e-12,1.7200010678147255e-12,1.2681305596071364e-17,-113.11973119731198
2.2518673014716138e-26,1.770740896382519e-34,2.2155258634744882e-17,1.908440869889529e-12,1.9084630251481864e-12,1.4868259382613492e-17,-112.95972959729598
2.849918539236322e-26,2.4328933211211627e-34,2.5855467989628482e-17,2.1170381930841047e-12,2.1170640485521227e-12,1.7426196716671303e-17,-112.79972799727997
3.604970890018288e-26,3.3403557398364316e-34,3.016302117986173e-17,2.347869090177249e-12,2.3478992531984648e-12,2.0416976008118394e-17,-112.63972639726397
4.5577525390773956e-26,4.583149046888592e-34,3.517581207259241e-17,2.6032403325251935e-12,2.6032755083373117e-12,2.3912586135218646e-17,-112.47972479724797
5.759428419636829e-26,6.284009709470467e-34,4.1007215734692035e-17,2.885691171876596e-12,2.8857321790923885e-12,2.7996774492218765e-17,-112.31972319723197
7.274241116149086e-26,8.610161940667847e-34,4.778848811077436e-17,3.1980160429797184e-12,3.198063831467902e-12,3.27669315368985e-17,-112.15972159721596
9.182811373653265e-26,1.1789283139533885e-33,5.567152988288592e-17,3.5432894079394237e-12,3.5433450794693984e-12,3.833627141238437e-17,-111.99971999719997
1.1586260759242266e-25,1.6131140820329822e-33,6.483206855654502e-17,3.924892936793678e-12,3.92495776886235e-12,4.483635418929816e-17,-111.83971839718397
1.4611358524441137e-25,2.2056894849508652e-33,7.547332064907029e-17,4.3465452356965164e-12,4.3466207090173114e-12,5.242000212620567e-17,-111.67971679716797
1.841694368292495e-25,3.0138752294239178e-33,8.783020479360882e-17,4.8123343524113406e-12,4.812422182616319e-12,6.126467020485613e-17,-111.51971519715197
2.3201933979642374e-25,4.115359425261745e-33,1.0217418676788836e-16,5.326753308643393e-12,5.326855482830393e-12,7.157634020590046e-17,-111.35971359713596
2.9215308537199975e-25,5.615544584636593e-33,1.1881884908296045e-16,5.894738930198821e-12,5.894857749048196e-12,8.359401791509832e-17,-111.19971199711998
3.6768543912782883e-25,7.657334056982312e-33,1.3812629101901385e-16,6.5217142691626685e-12,6.5218523954540556e-12,9.75949248762845e-17,-111.03971039710397
4.625109825649544e-25,1.0434338322746466e-32,1.6051448009400099e-16,7.213634937388889e-12,7.2137954518694456e-12,1.1390048964875697e-16,-110.87970879708797
5.814968036280457e-25,1.4208683499399535e-32,1.8646569314636658e-16,7.97703969772803e-12,7.977226163421758e-12,1.3288325902538272e-16,-110.71970719707197
7.30722159620912e-25,1.9335008734060702e-32,2.1653620478866575e-16,8.81910568873503e-12,8.81932222494055e-12,1.5497486739915206e-16,-110.55970559705597
9.17776403649634e-25,2.629278019498609e-32,2.5136740326454126e-16,9.747708690281551e-12,9.747960057685733e-12,1.8067522274373564e-16,-110.39970399703996
1.1521291407260383e-24,3.572977282787668e-32,2.9169853907899578e-16,1.0771488871699995e-11,1.0771780570240227e-11,2.1056309085323864e-16,-110.23970239702396
1.445589878936235e-24,4.8520537706348997e-32,3.38381340580186e-16,1.1899922501024169e-11,1.1900260882366194e-11,2.453082859729201e-16,-110.07970079700797
1.8128785080308024e-24,6.58449634938516e-32,3.9239676341166783e-16,1.3143400133744651e-11,1.3143792530509876e-11,2.856857062043701e-16,-109.91969919699197
2.2723329482649563e-24,8.929376259501336e-32,4.548741779482148e-16,1.451331184250146e-11,1.451376671668168e-11,3.325914866074302e-16,-109.75969759697597
2.8467864817587523e-24,1.2101000849515578e-31,5.271133410643772e-16,1.602214009551942e-11,1.602266720886333e-11,3.8706158233722e-16,-109.59969599695997
3.564654870904392e-24,1.6387890955360744e-31,6.106095465256887e-16,1.7683560941582393e-11,1.7684171551132484e-11,4.50293139118309e-16,-109.43969439694396
4.461282706353568e-24,2.2178207660122577e-31,7.070824026858146e-16,1.9512554213253036e-11,1.9513261295660182e-11,5.236690596294195e-16,-109.27969279692797
5.580609905861358e-24,2.999379588086696e-31,8.185087478613547e-16,2.152552351809208e-11,2.1526342026845524e-11,6.087862328096818e-16,-109.11969119691197
6.977233387647e-24,4.053573234135305e-31,9.471602836881838e-16,2.374042685018032e-11,2.3741374010470987e-11,7.074879596777051e-16,-108.95968959689597
8.718956257950865e-24,5.474522205081046e-31,1.0956465860076359e-15,2.617691872158305e-11,2.6178014368177778e-11,8.219011850783951e-16,-108.79968799687997
1.0889938102533595e-23,7.388495712322671e-31,1.2669642425890523e-15,2.8856504785856688e-11,2.8857771750110166e-11,9.544792310868652e-16,-108.63968639686397
1.359458603522809e-23,9.964773591688486e-31,1.4645529686197036e-15,3.180271000369796e-11,3.180417455668017e-11,1.1080508260162078e-15,-108.47968479684796
1.696235810561407e-23,1.3430137267560307e-30,1.6923596659033083e-15,3.5041261484676845e-11,3.504295384435971e-11,1.2858763346872419e-15,-108.31968319683196
2.1153689809673683e-23,1.8088188428180376e-30,1.9549115218122385e-15,3.860028722920854e-11,3.8602242140751505e-11,1.4917122226285176e-15,-108.15968159681597
2.6367302374318204e-23,2.4345085347624532e-30,2.2573993911550206e-15,4.2510532091810696e-11,4.2512789491228216e-11,1.7298849312136593e-15,-107.99967999679997
3.284921013796166e-23,3.2743804248342136e-30,2.6057728704020236e-15,4.6805592390863525e-11,4.680819816376677e-11,2.0053755047096537e-15,-107.83967839678397
4.090381608427425e-23,4.400971692990745e-30,3.006848661577357e-15,5.152217070193633e-11,5.152517755063881e-11,2.323916496392661e-15,-107.67967679676796
5.0907572274222064e-23,5.911117892083844e-30,3.468434035282268e-15,5.670035249184631e-11,5.67038209259325e-11,2.692102892206116e-15,-107.51967519675196
6.33257890502941e-23,7.93400140247361e-30,3.999467441804957e-15,6.238390637953823e-11,6.238790584704335e-11,3.117519030187863e-15,-107.35967359673597
7.873330769274996e-23,1.0641835239282355e-29,4.6101785895002895e-15,6.86206099481748e-11,6.862522012684304e-11,3.6088837657797445e-15,-107.19967199671996
9.783991083434494e-23,1.426403495870739e-29,5.312270614400892e-15,7.546260318118378e-11,7.546791545189602e-11,4.176216441340771e-15,-107.03967039670397
1.2152153962775845e-22,1.9106004000525655e-29,6.1191273086268245e-15,8.296677175408945e-11,8.297289088151959e-11,4.8310265674122204e-15,-106.87966879668797
1.5085862397605345e-22,2.5574016445845966e-29,7.0460487623608126e-15,9.119516258440507e-11,9.120220863331829e-11,5.586530518817676e-15,-106.71966719667196
1.8718312125250743e-22,3.420815267824648e-29,8.110519210310042e-15,1.0021543422455912e-10,1.0022354474395661e-10,6.457898996485944e-15,-106.55966559665598
2.3213621095929656e-22,4.5725862874470845e-29,9.332511364646177e-15,1.1010134487845166e-10,1.1011067739004844e-10,7.462539512632154e-15,-106.39966399663996
2.8773902115173417e-22,6.107954642635694e-29,1.0734832069085169e-14,1.209332810316854e-10,1.2094401586404223e-10,8.620418730154665e-15,-106.23966239662397
3.5647928345290136e-22,8.153260211302679e-29,1.2343514730504913e-14,1.3279882990973832e-10,1.328111734248253e-10,9.954430135237286e-15,-106.07966079660797
4.414174467703601e-22,1.0875980211783724e-28,1.4188264683600507e-14,1.4579339921813e-10,1.4580758748325504e-10,1.1490813254655263e-14,-105.91965919659197
5.463165491703182e-22,1.4497967451640922e-28,1.630296442987677e-14,1.6002088787519313e-10,1.6003719084016933e-10,1.3259631456826381e-14,-105.75965759657596
6.75801081465011e-22,1.9312897611765614e-28,1.8726246575092506e-14,1.7559441172229032e-10,1.756131379695412e-10,1.5295316310113505e-14,-105.59965599655996
8.3555120957192475e-22,2.570924729338743e-28,2.1502143280691704e-14,1.9263708848936123e-10,1.9265859063347746e-10,1.7637287526683855e-14,-105.43965439654397
1.0325400973922246e-21,3.420053433296547e-28,2.468082215762584e-14,2.112828866068353e-10,2.1130756743002547e-10,2.0330658710291437e-14,-105.27965279652796
1.275323738210528e-21,4.546508704710231e-28,2.831941977963792e-14,2.3167754278923467e-10,2.3170586221028963e-10,2.3427040468492394e-14,-105.11965119651197
1.574394721132678e-21,6.0398307450745075e-28,3.248298539351912e-14,2.5397955367284456e-10,2.5401203665981245e-10,2.69854539627817e-14,-104.95964959649596
1.942613802934209e-21,8.018130420371371e-28,3.724554897375304e-14,2.783612471705532e-10,2.7839849272146954e-10,3.107336967494693e-14,-104.79964799647996
2.3957361128481267e-21,1.0637095775661916e-27,4.2691329528184577e-14,3.0500993961343865e-10,3.0505263094536257e-10,3.57678880881286e-14,-104.63964639646396
2.9530523940431173e-21,1.4101802538544718e-27,4.891610153172105e-14,3.341291851818135e-10,3.341781012862983e-10,4.1157081142832405e-14,-104.47964479644796
3.638170007992201e-21,1.8682190433051164e-27,5.602873957107199e-14,3.6594012459028335e-10,3.6599615333349257e-10,4.734151576089689e-14,-104.31964319643197
4.47996364932848e-21,2.473332852625561e-27,6.415296375219699e-14,4.006829404834366e-10,4.007470934516687e-10,5.443598346687448e-14,-104.15964159641595
5.5137320225148e-21,3.272193243973796e-27,7.342931118350241e-14,4.386184275227904e-10,4.386918568394876e-10,6.257146321306551e-14,-103.99963999639996
6.782604337731844e-21,4.3261037148381666e-27,8.401736193534466e-14,4.800296857037921e-10,4.801137030725101e-10,7.189734797238224e-14,-103.83963839638396
8.339249655643586e-21,5.715530103776805e-27,9.609825132684626e-14,5.25223946035213e-10,5.253200442948791e-10,8.258396954771671e-14,-103.67963679636796
1.0247953165349382e-20,7.54601583042544e-27,1.0987750424566833e-13,5.745345383453584e-10,5.74644415859852e-10,9.482546040850036e-14,-103.51963519635197
1.2587136795547721e-20,9.955899715301602e-27,1.2558823151031858e-13,6.283230116512027e-10,6.284485998953001e-10,1.0884299626092166e-13,-103.35963359633595
1.545241758908363e-20,1.312637843150038e-26,1.4349473308825642e-13,6.86981418240663e-10,6.871249129892037e-10,1.2488846855096318e-13,-103.19963199631997
1.8960316557915387e-20,1.7294616417764767e-26,1.6389655834211536e-13,7.509347733774781e-10,7.510986699547805e-10,1.4324864225907517e-13,-103.03963039630396
2.3252753927477124e-20,2.2770813875621135e-26,1.8713307945208426e-13,8.206437033438139e-10,8.208308364465188e-10,1.6424986124959567e-13,-102.87962879628796
2.8502494551231046e-20,2.9960411830531357e-26,2.1358864082331956e-13,8.966072953919427e-10,8.968208840612685e-10,1.8826337117410345e-13,-102.71962719627196
3.491974075292147e-20,3.9392959551492626e-26,2.4369835470785536e-13,9.793661640846437e-10,9.796098624742712e-10,2.1571133859151474e-13,-102.55962559625596
4.2760110039947805e-20,5.175961620742879e-26,2.779546215342856e-13,1.0695057494675652e-09,1.0697837041318595e-09,2.4707365466633103e-13,-102.39962399623997
5.233428334309629e-20,6.796183409266683e-26,3.1691446263682136e-13,1.1676598635389757e-09,1.1679767780539468e-09,2.82895622658605e-13,-102.23962239622395
6.40196672455101e-20,8.917451171052621e-26,3.612077633093796e-13,1.2745145025653979e-09,1.274875710392727e-09,3.2379664055662843e-13,-102.07962079620796
7.827448293733392e-20,1.1692785834858794e-25,4.1154653549186823e-13,1.3908119439400764e-09,1.3912234905538428e-09,3.704800037728605e-13,-101.91961919619196
9.565477759823915e-20,1.5321343747103047e-25,4.687353220469056e-13,1.5173551474963085e-09,1.5178238829140102e-09,4.2374396798619765e-13,-101.75961759617596
1.168349532175306e-19,2.006214309148243e-25,5.336828786422665e-13,1.6550124824756123e-09,1.6555461654710898e-09,4.844942291505358e-13,-101.59961599615997
1.4263252666083144e-19,2.6251818734567476e-25,6.074152848654889e-13,1.8047228027127514e-09,1.8053302181402498e-09,5.537579965981388e-13,-101.43961439614395
1.7403797682747528e-19,3.4327571154036704e-25,6.910906535264959e-13,1.9675008940402778e-09,1.9681919848678427e-09,6.326998562676871e-13,-101.27961279612796
2.12250704460686e-19,4.485680749693791e-25,7.860156263329885e-13,2.1444433194399334e-09,2.1452293352785176e-09,7.226396446251898e-13,-101.11961119611196
2.587223328510789e-19,5.857539856099569e-25,8.936638654481601e-13,2.3367346890775713e-09,2.337628353201742e-09,8.250725800887724e-13,-100.95960959609596
3.152088195755371e-19,7.64370204024413e-25,1.0156967740811901e-12,2.5456543840609223e-09,2.546670081150213e-09,9.41691928016648e-13,-100.79960799607996
3.8383313796030683e-19,9.967674617823981e-25,1.1539867054550947e-12,2.7725837645553016e-09,2.7737377516445907e-09,1.0744145078971586e-12,-100.63960639606395
4.671606309459693e-19,1.2989294445468173e-24,1.3106429485076822e-12,3.019013894789445e-09,3.0203245382051146e-09,1.2254093876565219e-12,-100.47960479604797
5.682895498770793e-19,1.691526775496774e-24,1.4880408107974467e-12,3.286553819485063e-09,3.288041860864152e-09,1.3971301503739182e-12,-100.31960319603195
6.909597787661484e-19,2.201272447698836e-24,1.6888541546217285e-12,3.5769394283526814e-09,3.578628283198265e-09,1.5923511636064133e-12,-100.15960159601596
8.396833253676898e-19,2.8626636592798077e-24,1.9160917816585987e-12,3.892042947523367e-09,3.893959040144712e-09,1.8142083314681378e-12,-99.99959999599996
1.0199008511705948e-18,3.720218583218466e-24,2.1731381048904116e-12,4.233883099127104e-09,4.236056238251898e-09,2.066244865112874e-12,-99.83959839598396
1.2381693335308882e-18,4.83134662216356e-24,2.463798594577016e-12,4.6046359727000035e-09,4.607099772532755e-09,2.3524626689326704e-12,-99.67959679596797
1.502386928644207e-18,6.270028888356427e-24,2.7923505380684643e-12,5.006646654699589e-09,5.009439006740051e-09,2.6773800082561624e-12,-99.51959519595195
1.8220622622449733e-18,8.131534196975587e-24,3.1635997117794132e-12,5.44244166514224e-09,5.44560526667609e-09,3.046096200325896e-12,-99.35959359593596
2.2086367492392158e-18,1.053845753102491e-23,3.582943628234521e-12,5.914742253254643e-09,5.918325199091525e-09,3.4643641546456393e-12,-99.19959199591996
2.6758701733069767e-18,1.364844621445579e-23,4.0564420923216e-12,6.426478607050797e-09,6.430535051819002e-09,3.938671682276873e-12,-99.03959039590396
3.240301689229999e-18,1.7664078315417487e-23,4.590895879413636e-12,6.980805034927517e-09,6.98539593404725e-09,4.476332597287257e-12,-98.87958879588795
3.921800698886115e-18,2.2845483635215107e-23,5.193934434536079e-12,7.581116180703538e-09,7.586310119059898e-09,5.085588748351708e-12,-98.71958719587195
4.744224760698664e-18,2.952645699887242e-23,5.874113587040624e-12,8.231064337031965e-09,8.23693845536326e-09,5.7757242456282596e-12,-98.55958559585596
5.7362048972963316e-18,3.8135015229749224e-23,6.6410243801332446e-12,8.934577925789966e-09,8.941218955906342e-09,6.557193288734336e-12,-98.39958399583995
6.932082455861413e-18,4.921960420106229e-23,7.5054142300064e-12,9.695881217900938e-09,9.703386639063075e-09,7.441763157308311e-12,-98.23958239582396
8.373026154193715e-18,6.348248457684188e-23,8.479321756240627e-12,1.0519515369087774e-08,1.0527994699217105e-08,8.44267409777516e-12,-98.07958079580796
1.0108363234964373e-17,8.182223168764947e-23,9.576226764639445e-12,1.1410360852280434e-08,1.1419937089153519e-08,9.574818030181614e-12,-97.91957919579195
1.2197164894165581e-17,1.0538779826088076e-22,1.0811217016934805e-11,1.2373661371838993e-08,1.2384472601053198e-08,1.0854938209156121e-11,-97.75957759577597
1.4710133515089194e-17,1.3564723579759972e-22,1.220117359010789e-11,1.3415049349384051e-08,1.3427250537684428e-08,1.230185220513722e-11,-97.59957599575995
1.773184792275728e-17,1.7447498551422594e-22,1.3764976812809026e-11,1.4540573075878398e-08,1.455433807042323e-08,1.3936700828182973e-11,-97.43957439574396
2.1363433105490208e-17,2.24262675812103e-22,1.5523734969038122e-11,1.575672562967706e-08,1.5772249386009753e-08,1.5783225899278828e-11,-97.27957279572796
2.5725732899083853e-17,2.8805965379177226e-22,1.750103818147579e-11,1.7070475665554248e-08,1.7087976729461746e-08,1.7868080085674956e-11,-97.11957119571196
3.096307830925528e-17,3.6975110034344206e-22,1.972324013044057e-11,1.848930018525517e-08,1.8509023456349057e-08,2.0221172360243842e-11,-96.95956959569595
3.724776082665584e-17,4.742836153939502e-22,2.2219770531261678e-11,2.00212194058902e-08,2.0043439213669696e-08,2.2876053023195403e-11,-96.79956799567995
4.47853396945467e-17,6.07950716216971e-22,2.5023481585016778e-11,2.1674833848516016e-08,2.1699857374886982e-08,2.5870342641101778e-11,-96.63956639566396
5.3820935122136896e-17,7.78753897236338e-22,2.817103193730481e-11,2.345936377552632e-08,2.3487534861285337e-08,2.9246209716682154e-11,-96.47956479564795
6.464668647963292e-17,9.968589162640771e-22,3.170331202944437e-11,2.538469111201674e-08,2.5416394488693866e-08,3.305090240717252e-11,-96.31956319563196
7.761058624360544e-17,1.2751720009410934e-21,3.566591510885572e-11,2.7461403993110638e-08,2.7497069985831356e-08,3.7337340163676735e-11,-96.15956159561595
9.31269376741945e-17,1.6300669606018728e-21,4.010965858316673e-11,2.9700844086310373e-08,2.9740953838022108e-08,4.2164771773333346e-11,-95.99955999559995
1.1168872781971976e-16,2.0823020538532312e-21,4.50911608589354e-11,3.2115156845329356e-08,3.21602481178791e-08,4.759950695560083e-11,-95.83955839558396
1.3388225852965787e-16,2.65817528687954e-21,5.067347930401444e-11,3.471734485951758e-08,3.476801847270651e-08,5.371572939894612e-11,-95.67955679556795
1.604044379581588e-16,3.390979080705973e-21,5.692681551609143e-11,3.752132447095888e-08,3.75782514468828e-08,6.059639993078293e-11,-95.51955519555196
1.9208320500225666e-16,4.322830540838522e-21,6.392929467269518e-11,4.054198583959676e-08,4.060591532635698e-08,6.833425939820168e-11,-95.35955359553596
2.299016409190418e-16,5.506972624793897e-21,7.176782638396845e-11,4.3795256645307245e-08,4.386702470159836e-08,7.703294180683378e-11,-95.19955199551995
2.7502641795024276e-16,7.010665241477664e-21,8.053905517336379e-11,4.729816962474836e-08,4.737870895495515e-08,8.680820932798144e-11,-95.03955039550395
3.288413464064059e-16,8.918814855576344e-21,9.035040947776237e-11,5.1068934150023165e-08,5.1159284888351194e-08,9.778932194800078e-11,-94.87954879548795
3.929869119392803e-16,1.1338527899255737e-20,1.0132125889253496e-10,5.5127012065735744e-08,5.522833371762653e-08,1.1012055580804219e-10,-94.71954719547196
4.6940684668579925e-16,1.4404818927283403e-20,1.1358419029427172e-10,5.9493198010898335e-08,5.960678267061385e-08,1.2396288567626788e-10,-94.55954559545594
5.604029550999379e-16,1.8287761105304796e-20,1.2728641446011525e-10,6.418970446234432e-08,6.431699143722569e-08,1.3949584851907656e-10,-94.39954399543996
6.686996216484051e-16,2.3201436901129465e-20,1.4259131587437857e-10,6.924025174687298e-08,6.938284373147018e-08,1.5691960680422511e-10,-94.23954239542395
7.975196678072521e-16,2.94151339655097e-20,1.5968015957684495e-10,7.467016328020902e-08,7.482984423733494e-08,1.764572319889559e-10,-94.07954079540795
9.506735053621077e-16,3.7267339091862393e-20,1.7875397017054754e-10,8.050646630212665e-08,8.068522122300796e-08,1.9835723063405836e-10,-93.91953919539195
1.1326638581147978e-15,4.7183216689711577e-20,2.0003559947724138e-10,8.677799838864653e-08,8.69780351208348e-08,2.2289633775398306e-10,-93.75953759537595
1.34880870192231e-15,5.969642335989226e-20,2.2377200081480567e-10,9.351552003415901e-08,9.373929338384221e-08,2.503826043794381e-10,-93.59953599535996
1.605385511823001e-15,7.54763142431367e-20,2.5023672948122977e-10,1.0075183360859431e-07,1.0100207194353654e-07,2.811588088887915e-10,-93.43953439534394
1.909800414379268e-15,9.536184880837234e-20,2.7973269077402404e-10,1.0852190900738378e-07,1.0880164360805359e-07,3.156062244756803e-10,-93.27953279532795
2.27078643426831e-15,1.2040381465857823e-19,3.1259515876224507e-10,1.1686301632495474e-07,1.1717561375462383e-07,3.5414877818227837e-10,-93.11953119531195
2.698635709207848e-15,1.519173712363482e-19,3.4919509107105733e-10,1.2581486589577136e-07,1.2616406368563003e-07,3.972576402603205e-10,-92.95952959529595
3.2054713410359043e-15,1.915473874964198e-19,3.899427671481001e-10,1.3541975606063847e-07,1.3580970203344946e-07,4.454562862484609e-10,-92.79952799527996
3.80556546984286e-15,2.4134962883386517e-19,4.3529177986834503e-10,1.457227290299562e-07,1.4615802461563137e-07,4.993260780977698e-10,-92.63952639526394
4.515711221624497e-15,3.0389156343449285e-19,4.857434129130126e-10,1.5677173522992412e-07,1.5725748315885224e-07,5.595124149627653e-10,-92.47952479524795
5.355657409951011e-15,3.823774367965493e-19,5.418514391424152e-10,1.6861780653239657e-07,1.6915966332757878e-07,6.267315089313891e-10,-92.31952319523195
6.348616293791864e-15,4.808033421021196e-19,6.042273781861037e-10,1.813152387839774e-07,1.819194725112606e-07,7.017778460213296e-10,-92.15952159521595
7.521856335756578e-15,6.041493380423758e-19,6.735462547133256e-10,1.9492178406528285e-07,1.9559533784245667e-07,7.855323982555282e-10,-91.99951999519995
8.90739380060747e-15,7.586172889799246e-19,7.505529023374801e-10,2.0949885312683705e-07,2.1024941493732696e-07,8.789716585779978e-10,-91.83951839518394
1.0542799220763459e-14,9.519250910901913e-19,8.360688618686567e-10,2.2511172846390354e-07,2.2594780786952333e-07,9.831775768192648e-10,-91.67951679516796
1.2472137276820928e-14,1.1936703827343949e-18,9.309999266761135e-10,2.4182978850870196e-07,2.42760800908709e-07,1.0993484819065746e-09,-91.51951519515194
1.474706154621487e-14,1.495779815388919e-18,1.0363443922773824e-09,2.5972674343478323e-07,2.6076310257561796e-07,1.2288110830777902e-09,-91.35951359513595
1.7428088918386948e-14,1.873063601436969e-18,1.153202071953861e-09,2.7888088308500827e-07,2.800341025869241e-07,1.3730336510443013e-09,-91.19951199511995
2.0586082324459146e-14,2.3438995006234872e-18,1.2827841452239661e-09,2.9937533755129854e-07,3.0065814228494874e-07,1.53364048890135e-09,-91.03951039510395
2.430397485677919e-14,2.9310758319642774e-18,1.4264239114102343e-09,3.212983509514074e-07,3.227247991697236e-07,1.7124278121559369e-09,-90.87950879508796
2.867877344226881e-14,3.662829712964438e-18,1.5855885263367704e-09,3.447435689651366e-07,3.4632918617390965e-07,1.9113811675827348e-09,-90.71950719507194
3.382388607838311e-14,4.574124787831028e-18,1.7618918064160165e-09,3.6981034070962966e-07,3.715722663445059e-07,2.13269453178416e-09,-90.55950559505595
3.9871823349886934e-14,5.70822251873223e-18,1.957108191055146e-09,3.96604035551014e-07,3.9856118361960073e-07,2.37879124238155e-09,-90.39950399503995
4.6977332641530914e-14,7.118613050656566e-18,2.1731879614584497e-09,4.2523637546692437e-07,4.2740961041283407e-07,2.6523469277604573e-09,-90.23950239502395
5.5321032285963904e-14,8.871386169375349e-18,2.412273821555752e-09,4.5582578359219904e-07,4.5823811274365844e-07,2.9563146153046354e-09,-90.07950079500795
6.511362299644683e-14,1.1048140493778112e-17,2.67671895497522e-09,4.884977495975316e-07,4.91174533677178e-07,3.2939522131470706e-09,-89.91949919499194
7.660076551032611e-14,1.3749550429250885e-17,2.969106680736624e-09,5.233852125683759e-07,5.263543958636276e-07,3.6688525767190424e-09,-89.75949759497595
9.006872661596475e-14,1.709973634097577e-17,3.2922718397005773e-09,5.606289620689972e-07,5.639213239945241e-07,4.084976388868153e-09,-89.59949599495994
1.0585091088424879e-13,2.1251614826663142e-17,3.6493240538050614e-09,6.003780580937339e-07,6.040274880197014e-07,4.54668810112515e-09,-89.43949439494395
1.2433541273801795e-13,2.6393444008522838e-17,4.0436730107921374e-09,6.427902706250295e-07,6.468340679976278e-07,5.058795203918874e-09,-89.27949279492795
1.4597374326497906e-13,3.2756824781994394e-17,4.479055938506764e-09,6.880325395344808e-07,6.925117414794876e-07,5.626591115254187e-09,-89.11949119491194
1.7129090874738884e-13,4.062647458235008e-17,4.959567444984875e-09,7.36281455580119e-07,7.412411943566391e-07,6.255902000686635e-09,-88.95948959489596
2.008970436233414e-13,5.035215741096192e-17,5.489691913471421e-09,7.877237632695134e-07,7.932136561303806e-07,6.953137862441922e-09,-88.79948799487994
2.3550082993760145e-13,6.236323493696057e-17,6.0743386552676e-09,8.425568863741777e-07,8.486314605926385e-07,7.725348262353419e-09,-88.63948639486395
2.759249687671423e-13,7.718640125183824e-17,6.718880037948058e-09,9.009894768967074e-07,9.077086329368106e-07,8.580283072039021e-09,-88.47948479484795
3.2312400716110964e-13,9.54672816441719e-17,7.429192822046778e-09,9.63241988306683e-07,9.706715043482043e-07,9.526458674520547e-09,-88.31948319483195
3.782048674303259e-13,1.1799671756798314e-16,8.211702955848625e-09,1.0295472738764696e-06,1.0377593551551822e-06,1.0573230074444335e-08,-88.15948159481594
4.424504748466258e-13,1.4574273056013567e-16,9.07343409547451e-09,1.1001512109614054e-06,1.1092250876530975e-06,1.1730869409302246e-08,-87.99947999479994
5.173469357436356e-13,1.7988936289319393e-16,1.0022060136071531e-08,1.1753133520823622e-06,1.1853359297452589e-06,1.301065139173117e-08,-87.83947839478395
6.046147815201048e-13,2.2188383898788504e-16,1.1065962059664482e-08,1.255307603680928e-06,1.2663741705772578e-06,1.4424946253215294e-08,-87.67947679476794
7.06244866113946e-13,2.734937870956049e-16,1.221428942613834e-08,1.3404229334287418e-06,1.35263792937324e-06,1.5987320802482805e-08,-87.51947519475195
8.245395862404468e-13,3.368766150589277e-16,1.347702685597032e-08,1.4309641069834258e-06,1.444441958715859e-06,1.771264825773867e-08,-87.35947359473595
9.621601863028137e-13,4.146635584257997e-16,1.486506587674596e-08,1.527252455092402e-06,1.5421184835439979e-06,1.961722756074172e-08,-87.19947199471994
1.1221810147727092e-12,5.10061427316331e-16,1.6390282530261833e-08,1.6296266719547746e-06,1.6460180771761126e-06,2.1718912932827666e-08,-87.03947039470395
1.3081517175476104e-12,6.269756862091541e-16,1.8065621163166606e-08,1.7384436457580174e-06,1.7565105756998772e-06,2.4037254488426538e-08,-86.87946879468794
1.524168488054683e-12,7.701592271756617e-16,1.9905184851694726e-08,1.8540793223119137e-06,1.8739860321022556e-06,2.6593650780627206e-08,-86.71946719467195
1.7749556456251817e-12,9.453920644763803e-16,2.192433294016467e-08,1.9769296027069126e-06,1.998855711548115e-06,2.941151421610452e-08,-86.55946559465595
2.0659589850702903e-12,1.159698213373764e-15,2.4139786203578146e-08,2.1074112759257946e-06,2.131553129248056e-06,3.251645034337235e-08,-86.39946399463994
2.4034525338699474e-12,1.4216072498675384e-15,2.6569740176970152e-08,2.245962987339396e-06,2.272535132390507e-06,3.5936452089154417e-08,-86.23946239462394
2.794660571631679e-12,1.7414695178386144e-15,2.923398722812981e-08,2.393046244015729e-06,2.4222830276459e-06,3.970211009277392e-08,-86.07946079460794
3.2478970124954842e-12,2.131835699471124e-15,3.215404798604085e-08,2.549146457769417e-06,2.581303755784306e-06,4.3846840368131905e-08,-85.91945919459195
3.772724528299009e-12,2.6079135452798365e-15,3.535331277490252e-08,2.714774026873415e-06,2.7501311149807593e-06,4.840713060726609e-08,-85.75945759457593
4.380136102298708e-12,3.1881170322151853e-15,3.885719374295891e-08,2.8904654573479743e-06,2.9293270344151525e-06,5.342280652883592e-08,-85.59945599455995
5.082762054216972e-12,3.894726153466316e-15,4.269328841665663e-08,3.0767845247333104e-06,3.1194828998067475e-06,5.8937319769486247e-08,-85.43945439454394
5.895105971944186e-12,4.754679025549239e-15,4.689155545386223e-08,3.2743234772395164e-06,3.3212209325540296e-06,6.499805891597454e-08,-85.27945279452794
6.83381342849553e-12,5.80052212551182e-15,5.1484503415150625e-08,3.4837042811546648e-06,3.535195624183766e-06,7.165668538160964e-08,-85.11945119451195
7.917977860462414e-12,7.071549359102857e-15,5.650739341946888e-08,3.7055799093741573e-06,3.762095227843036e-06,7.896949594203748e-08,-84.95944959449594
9.169488542501027e-12,8.61516644495758e-15,6.199845659989978e-08,3.9406356738949235e-06,4.0026433085985325e-06,8.699781386299902e-08,-84.79944799447995
1.0613426218334145e-11,1.0488523938845695e-14,6.799912732684727e-08,4.189590603096498e-06,4.257600354338087e-06,9.580841067669515e-08,-84.63944639446393
1.2278512649990783e-11,1.276047030136392e-14,7.455429321968534e-08,4.453198864603487e-06,4.527765449096293e-06,1.0547396079386033e-07,-84.47944479444794
1.4197621132132e-11,1.5513885949133895e-14,8.171256302395802e-08,4.732251234497605e-06,4.8139780106565815e-06,1.1607353127608814e-07,-84.31944319443194
1.6408355896671996e-11,1.884847047693299e-14,8.952655348940834e-08,5.027576613612627e-06,5.1171195943064025e-06,1.2769310923729186e-07,-84.15944159441594
1.8953709314947873e-11,2.2884068492019475e-14,9.80531964446961e-08,5.340043591612253e-06,5.438115764650333e-06,1.4042616949494358e-07,-83.99943999439995
2.188280690184008e-11,2.776463510690116e-14,1.0735406732746496e-07,5.670562059510071e-06,5.777938037409073e-06,1.5437428525093873e-07,-83.83943839438393
2.5251751351144057e-11,3.3662960494532745e-14,1.1749573649356977e-07,6.020084871247904e-06,6.137605893155785e-06,1.6964778474886622e-07,-83.67943679436794
2.912457819807411e-11,4.078629448772564e-14,1.285501446967768e-07,6.3896095549032415e-06,6.518188864964511e-06,1.8636645702946873e-07,-83.51943519435194
3.3574337228277553e-11,4.938303754558755e-14,1.4059500419996803e-07,6.780180074042668e-06,6.920808701962902e-06,2.0466031008907461e-07,-83.35943359433594
3.8684315450061784e-11,5.975069414526247e-14,1.5371422705104517e-07,7.19288863968596e-06,7.346641610803149e-06,2.2467038493734826e-07,-83.19943199431994
4.454941933606331e-11,7.224531951917901e-14,1.6799838213105884e-07,7.6288775732838515e-06,7.796920577079565e-06,2.465496292506897e-07,-83.03943039430393
5.127773614263135e-11,8.729273149549051e-14,1.8354518265872224e-07,8.089341221049153e-06,8.272937768736748e-06,2.7046383452641873e-07,-82.87942879428795
5.89922964519729e-11,1.0540180699558376e-13,2.0046000591433459e-07,8.575527919912728e-06,8.776047023525321e-06,2.965926408605587e-07,-82.71942719427193
6.783306267786956e-11,1.2718023863509678e-13,2.1885644702708003e-07,9.088742015301015e-06,9.307666422571011e-06,3.2513061369875803e-07,-82.55942559425594
7.79591711572649e-11,1.533531921792611e-13,2.388569087528407e-07,9.630345930856412e-06,9.869280952133603e-06,3.562883971458889e-07,-82.39942399423994
8.955145864613481e-11,1.8478538183810486e-13,2.6059322925463324e-07,1.0201762290134677e-05,1.0462445255633339e-05,3.902939486649046e-07,-82.23942239422394
1.0281530758080359e-10,2.225071693052838e-13,2.8420734998488035e-07,1.0804476090229411e-05,1.1088786478029042e-05,4.273938602503027e-07,-82.07942079420795
1.179838483896805e-10,2.6774539606548267e-13,3.098520258574701e-07,1.1440036927177908e-05,1.1750007204629164e-05,4.6785477142537015e-07,-81.91941919419193
1.3532156148317374e-10,3.2195977914621646e-13,3.376915799879781e-07,1.2110061272903434e-05,1.2447888496412675e-05,5.119648796858498e-07,-81.75941759417594
1.5512832635249086e-10,3.868858408466262e-13,3.679027053725269e-07,1.2816234803348596e-05,1.3184293023933317e-05,5.600355542956664e-07,-81.59941599415994
1.777439705156314e-10,4.645855061135629e-13,4.006753159689041e-07,1.3560314777339745e-05,1.396116830186467e-05,6.124030596323266e-07,-81.43941439414394
2.0355337691016892e-10,5.575066906865888e-13,4.3621344973821857e-07,1.4344132465612029e-05,1.4780550026233847e-05,6.694303945814879e-07,-81.27941279412794
2.329922147997833e-10,6.685534229474773e-13,4.7473622630070056e-07,1.5169595629301559e-05,1.5644565516370482e-05,7.315092547906702e-07,-81.11941119411193
2.6655336639248517e-10,8.011682972292662e-13,5.164788619554809e-07,1.6038691047085445e-05,1.6555437263575615e-05,7.990621249119999e-07,-80.95940959409594
3.047941292249721e-10,9.59429351477049e-13,5.616937449108311e-07,1.6953487090019427e-05,1.7515486588488836e-05,8.725445082923647e-07,-80.79940799407993
3.4834428301669636e-10,1.1481638036837047e-12,6.10651573668051e-07,1.7916136342982117e-05,1.852713740909699e-05,9.524473019063015e-07,-80.63940639406394
3.979151192117804e-10,1.373081476390817e-12,6.636425615992084e-07,1.8928878271497615e-05,1.959292012129751e-05,1.0392993246725647e-06,-80.47940479404794
4.5430954188467077e-10,1.6409311946668744e-12,7.209777108547761e-07,1.9994041932550465e-05,2.071547559387832e-05,1.133670007647686e-06,-80.31940319403193
5.184333601719241e-10,1.9596839693871537e-12,7.829901588331647e-07,2.1114048727859927e-05,2.1897559279737235e-05,1.2361722549510082e-06,-80.15940159401595
5.913079049976485e-10,2.3387473846229616e-12,8.500366005381064e-07,2.2291415197915278e-05,2.3142045445105767e-05,1.347465484642235e-06,-79.99939999399993
6.740841166826932e-10,2.789216307206952e-12,9.224987902426163e-07,2.352875585490709e-05,2.4451931518482694e-05,1.468258859146086e-06,-79.83939839398394
7.680582651731381e-10,3.3241658413768356e-12,1.0007851259691892e-06,2.482878605252241e-05,2.5830342560922613e-05,1.5993147151980649e-06,-79.67939679396794
8.74689481203961e-10,3.958993376903916e-12,1.085332320383479e-06,2.619432489038539e-05,2.7280535859243452e-05,1.7414522036680105e-06,-79.51939519395194
9.956192948520443e-10,4.711817642420905e-12,1.1766071617844566e-06,2.7628298150751403e-05,2.8805905643648355e-05,1.8955511500069969e-06,-79.35939359393593
1.132693397756888e-09,5.60394389616309e-12,1.275108368955077e-06,2.913374126486564e-05,3.040998793116237e-05,2.0625561464526933e-06,-79.19939199391993
1.287985866938069e-09,6.660405785992992e-12,1.3813685437151702e-06,3.071380230620883e-05,3.209646549619672e-05,2.2434808875216165e-06,-79.03939039390394
1.463826111763005e-09,7.910596014203163e-12,1.4959562250908943e-06,3.23717450076517e-05,3.386917296945037e-05,2.4394127607099517e-06,-78.87938879388793
1.6628288313752758e-09,9.388999778213459e-12,1.6194780490821595e-06,3.411095179933272e-05,3.573210206624603e-05,2.651517704717055e-06,-78.71938719387194
1.887927297952845e-09,1.1136047057519037e-11,1.7525810180711676e-06,3.593492686387272e-05,3.76894069452889e-05,2.8810453478985913e-06,-78.55938559385594
2.1424103117030546e-09,1.3199102215699318e-11,1.8959548839688423e-06,3.784729920531562e-05,3.974540969869838e-05,3.129334440042335e-06,-78.39938399383993
2.429963206712109e-09,1.5633612124096504e-11,2.0503346492437527e-06,3.985182572797648e-05,4.190460597403907e-05,3.39781859094473e-06,-78.23938239382394
2.754713322849618e-09,1.850443713593911e-11,2.2165031900162078e-06,4.1952394321150636e-05,4.417167072892683e-05,3.6880323296425918e-06,-78.07938079380793
3.1212803980985003e-09,2.1887392796861453e-11,2.3952940054297535e-06,4.4153026945410064e-05,4.6551464118630716e-05,4.0016174985222395e-06,-77.91937919379194
3.5348323781664166e-09,2.5871034226722105e-11,2.587594097532603e-06,4.645788271599364e-05,4.9049037516938636e-05,4.34032999688884e-06,-77.75937759377594
4.001147186269074e-09,3.055871971191022e-11,2.79434698590912e-06,4.887126097854886e-05,5.1669639670363956e-05,4.7060468889223835e-06,-77.59937599375993
4.526681045819662e-09,3.607099527818619e-11,3.016555861299939e-06,5.1397604372264124e-05,5.441872298560516e-05,5.100773891280541e-06,-77.43937439374393
5.118644002667391e-09,4.254834795100153e-11,3.2552868824325827e-06,5.4041501875180804e-05,5.7301949949964007e-05,5.526653255922925e-06,-77.27937279372793
5.785083351786497e-09,5.015438214205096e-11,3.5116726202560174e-06,5.680769182623856e-05,6.0325199684228506e-05,5.985972064026378e-06,-77.11937119371194
6.534975736215398e-09,5.907948122649704e-11,3.786915653728389e-06,5.97010649183664e-05,6.349457462731223e-05,6.48117094713636e-06,-76.95936959369593
7.378328753884036e-09,6.954502500517509e-11,4.082292321247365e-06,6.272666715668277e-05,6.681640735170902e-05,7.014853251946515e-06,-76.79936799367994
8.326292981075694e-09,8.1808243502823e-11,4.399156631737755e-06,6.588970277563771e-05,7.029726750860005e-05,7.5897946653232415e-06,-76.63936639366393
9.39128539996019e-09,9.616779857312806e-11,4.73894433931494e-06,6.919553710866412e-05,7.39439689011776e-05,8.208953316380108e-06,-76.47936479364793
1.0587125302278003e-08,1.1297019721553538e-10,5.103177185332187e-06,7.264969940368498e-05,7.776357668451666e-05,8.875480372567222e-06,-76.31936319363194
1.1929183832182224e-08,1.3261715452463406e-10,5.493467311485748e-06,7.625788557756495e-05,8.17634146900374e-05,9.592731146860341e-06,-76.15936159361593
1.3434548428839355e-08,1.5557403997603595e-10,5.911521847497959e-06,8.002596090235154e-05,8.59510728723183e-05,1.0364276733213428e-05,-75.99935999359994
1.512220353404065e-08,1.823795585079774e-10,6.359147676724235e-06,8.395996261593103e-05,9.033441487574782e-05,1.1193916187478004e-05,-75.83935839358394
1.701322904214096e-08,2.1365683781124838e-10,6.838256382827865e-06,8.806610244945606e-05,9.492158571816388e-05,1.2085689270976814e-05,-75.67935679356793
1.913101808957382e-08,2.501261156412372e-10,7.350869380445709e-06,9.235076906370009e-05,9.972101958835102e-05,1.3043889773860026e-05,-75.51935519355193
2.1501515909346985e-08,2.9261924608877216e-10,7.89912323251664e-06,9.682053038623997e-05,0.00010474144775391205,1.4073079435252386e-05,-75.35935359353593
2.4153481612760835e-08,3.4209627189304964e-10,8.485275156669818e-06,0.0001014821358411559,0.00010999190657571037,1.517810247702148e-05,-75.19935199351993
2.711877490650836e-08,3.996643413809784e-10,9.11170872276532e-06,0.00010634251846271519,0.0001154817456247284,1.6364100767756215e-05,-75.03935039350394
3.043266990875774e-08,4.665992838359724e-10,9.780939743348372e-06,0.00011140879688429156,0.00012122063589683253,1.7636529633236264e-05,-74.87934879348794
3.4134198393193584e-08,5.443701964321153e-10,1.049562235841367e-05,0.00011668827719356269,0.00012721857812056597,1.9001174329288306e-05,-74.71934719347193
3.8266524965754225e-08,6.346674397515755e-10,1.1258555315485733e-05,0.00012218845464484116,0.0001334859111527324,2.0464167192471032e-05,-74.55934559345593
4.28773568653547e-08,7.394344878065369e-10,1.2072688445593082e-05,0.00012791701521918766,0.0001400333204561339,2.2032005483487296e-05,-74.39934399343993
4.80193912776591e-08,8.609041329286264e-10,1.2941129335257038e-05,0.00013388183702278846,0.00014687184665345608,2.3711569937598727e-05,-74.23934239342393
5.375080326037214e-08,1.0016396064293986e-09,1.3867150194123485e-05,0.00014009099151389927,0.00015401289415088956,2.5510144035601508e-05,-74.07934079340794
6.013577759995291e-08,1.1645812431842866e-09,1.4854194917338933e-05,0.00014655274454850801,0.0001614682398246901,2.7435434008113276e-05,-73.91933919339193
6.724508815349504e-08,1.3530993929101066e-09,1.590588634120893e-05,0.00015327555723470388,0.00016925004176345922,2.949558958500673e-05,-73.75933759337593
7.515672847614599e-08,1.571054363607925e-09,1.7026033690080293e-05,0.0001602680865856308,0.00017737084805855084,3.169922550081809e-05,-73.59933599335993
8.395659779414688e-08,1.8228642742007483e-09,1.8218640211751208e-05,0.00016753918596076176,0.00018584360563458132,3.405544376582904e-05,-73.43933439334393
9.373924665673361e-08,2.1135817946420755e-09,1.948791099804131e-05,0.00017509790528513002,0.0001946816691116227,3.657385671128987e-05,-73.27933279332792
1.0460868688695483e-07,2.4489808636040996e-09,2.0838260986443427e-05,0.00018295349103606817,0.00020389880969026215,3.92646108158936e-05,-73.11933119331194
1.1667927075220803e-07,2.8356545972357854e-09,2.2274323138030616e-05,0.00019111538598693138,0.00021350922405031144,4.213841131914085e-05,-72.95932959329593
1.3007664459012832e-07,3.2811257384433295e-09,2.3800956786001822e-05,0.0001995932286972069,0.0002235275432535373,4.5206547625624556e-05,-72.79932799327993
1.4493878245453866e-07,3.793971145797295e-09,2.5423256148430124e-05,0.00020839685273840757,0.00023396884164043804,4.8480919502543276e-05,-72.63932639326393
1.6141710568949385e-07,4.383961985686164e-09,2.7146558997907005e-05,0.00021753628564509417,0.00024484864571067637,5.1974064070875166e-05,-72.47932479324793
1.796776946971123e-07,5.062221471978851e-09,2.8976455479878676e-05,0.00022702174758039304,0.0002561829429764408,5.569918358864589e-05,-72.31932319323192
1.9990259953670804e-07,5.84140219556127e-09,3.091879707052792e-05,0.00023686364970538785,0.00026798819077764806,5.9670174022577865e-05,-72.15932159321594
2.2229125637863836e-07,6.735885303093273e-09,3.2979705664080335e-05,0.00024707259224181926,0.0002802813250475813,6.390165440211851e-05,-71.99931999319993
2.470620172358914e-07,7.762004021690864e-09,3.51655827783938e-05,0.0002576593622175736,0.000293079769017225,6.840899694740426e-05,-71.83931839318393
2.7445380080959445e-07,8.938294285559339e-09,3.7483118866649474e-05,0.0002686349308845562,0.00030640144184630085,7.320835796013794e-05,-71.67931679316793
3.0472787271057193e-07,1.0285775503545122e-08,3.9939302721867896e-05,0.00028001045079864166,0.0003202647671687237,7.831670946360988e-05,-71.51931519315193
3.3816976375746557e-07,1.1828264814889076e-08,4.2541430959861484e-05,0.0002917972525515433,0.00033468868153997716,8.375187157520459e-05,-71.35931359313592
3.7509133550192513e-07,1.3592728515975543e-08,4.529711756508225e-05,0.00030400684114460026,0.0003496926427737004,8.953254559168451e-05,-71.19931199311993
4.158330025920848e-07,1.5609674705486106e-08,4.8214303482641994e-05,0.0003166508919946932,0.00036529663815463274,9.567834776434274e-05,-71.03931039310393
4.607661220558858e-07,1.79135915910532e-08,5.130126623857094e-05,0.0003297412465626898,0.00038152119251490767,0.00010220984373774353,-70.87930879308793
5.102955600649001e-07,2.054343632933574e-08,5.456662956914759e-05,0.0003432899075951017,0.00039838737616064353,0.00010914858362227072,-70.71930719307193
5.648624472252133e-07,2.3543179735482942e-08,5.801937303886916e-05,0.0003573090339698921,0.00041591681263572196,0.00011651713766701429,-70.55930559305592
6.249471339337202e-07,2.6962412699411647e-08,6.166884162534824e-05,0.00037181093513768396,0.00043413168630966533,0.00012433913249570877,-70.39930399303992
6.910723578335514e-07,3.0857020687386887e-08,6.552475524812187e-05,0.00038680806514995806,0.0004530547497766009,0.00013263928786445185,-70.23930239302393
7.638066358998823e-07,3.528993329031387e-08,6.959721821704379e-05,0.00040231301626620063,0.00047270933105243463,0.00014144345389581432,-70.07930079300793
8.437678941841068e-07,4.033195640719264e-08,7.38967285745899e-05,0.0004183385121323386,0.0004931193405575198,0.0001507786487396557,-69.91929919299193
9.316273487389397e-07,4.6062695325631e-08,7.843418730508568e-05,0.00043489740052326734,0.0005143092778724176,0.00016067309660657537,-69.75929759297593
1.0281136517356261e-06,5.2571577683404807e-08,8.322090738250123e-05,0.00045200264564269405,0.0005363042382546143,0.00017115626611534748,-69.59929599295992
1.1340173172650357e-06,5.995898606804093e-08,8.82686226271279e-05,0.0004696673199740408,0.0005591299189045018,0.00018225890889102427,-69.43929439294392
1.250195441783375e-06,6.833751083745566e-08,9.358949634009979e-05,0.00048790459567666657,0.0005828126249693872,0.00019401309834557166,-69.27929279292792
1.377576734617352e-06,7.783333462590212e-08,9.919612968339204e-05,0.0005067277355222219,0.0006073792752748572,0.00020645226856798874,-69.11929119291193
1.517166874378952e-06,8.858776093785759e-08,0.00010510156977160965,0.0005261500833665451,0.0006328574077734716,0.00021961125324582853,-68.95928959289593
1.6700542075523325e-06,1.0075890022986878e-07,0.0001113193174405633,0.0005461850541531094,0.0006592751847014549,0.0002335263245348889,-68.79928799287993
1.8374158059015023e-06,1.1452352793847574e-07,0.0001178633346563662,0.000566846123444727,0.0006866613974349331,0.00024823523178866706,-68.63928639286392
2.0205238997008075e-06,1.3007913003257758e-07,0.00012474805152751518,0.0005881468164808403,0.0007150454710380888,0.000263777240053832,-68.47928479284792
2.2207527041080864e-06,1.4764615285224616e-07,0.00013198837288121477,0.0006101006967584988,0.0007444574684966739,0.00028019316823263706,-68.31928319283192
2.4395856562757045e-06,1.6747047524395058e-07,0.0001395996843640118,0.0006327213541358355,0.000774928094631367,0.0002975254268077843,-68.15928159281593
2.678623081023502e-06,1.8982612231503004e-07,0.00014759785802569538,0.0006560223924576481,0.000806488699686682,0.0003158180550198072,-67.99927999279993
2.93959030307248e-06,2.150182415081107e-07,0.0001559992573443096,0.0006800174167034782,0.0008391712825923684,0.0003351167573815599,-67.83927839278392
3.2243462239546072e-06,2.4338636313901076e-07,0.00016482074164914537,0.0007047200196594619,0.0008730084938957009,0.0003554689394089679,-67.67927679276792
3.5348923817645023e-06,2.7530796904835694e-07,0.00017407966989759028,0.0007301437681160262,0.0009080336383644294,0.00037692374244171014,-67.51927519275192
3.873382511897034e-06,3.112023945866572e-07,0.0001837939037608569,0.0007563021885944594,0.0009442806772618001,0.00039953207742209756,-67.35927359273592
4.242132626813681e-06,3.5153509078274295e-07,0.00019398180997280812,0.0007832087526062571,0.0009817842302966616,0.0004233466574950412,-67.19927199271993
4.6436316326936694e-06,3.968222752336604e-07,0.00020466226189538218,0.0008108768614501381,0.0010205795772534475,0.00044842202928673506,-67.03927039270393
5.0805525005436395e-06,4.476360019967838e-07,0.00021585464025350405,0.0008393198305525128,0.0010607026593085571,0.0004748146027144164,-66.87926879268792
5.555764008957691e-06,5.046096825579074e-07,0.00022757883299186335,0.0008685508733582951,0.001102190080041674,0.0005025826791745805,-66.71926719267192
6.072343075226719e-06,5.684440917869072e-07,0.00023985523420553057,0.0008985830847798656,0.0011450791061524098,0.0005317864779520127,-66.55926559265592
6.633587690886322e-06,6.399138946691135e-07,0.00025270474209608686,0.0009294294242130591,0.0011894076678947013,0.0005624881606872595,-66.39926399263992
7.243030477057021e-06,7.19874731508466e-07,0.0002661487559047914,0.0009611026981301312,0.0012352143592434881,0.0005947518537355946,-66.23926239262393
7.904452874061881e-06,8.09270901229296e-07,0.0002802091717742812,0.000993615542260707,0.0012825384378102795,0.0006286436682461669,-66.07926079260793
8.621899978793557e-06,9.091436843470649e-07,0.000294908377490377,0.0010269804033727606,0.0013314198245262781,0.0006642317177858561,-65.91925919259192
9.399696042142586e-06,1.0206403491245146e-06,0.00031026924605586596,0.0010612095206668844,0.0013818991031140176,0.0007015861333286396,-65.75925759257592
1.0242460637476213e-05,1.1450238863642575e-06,0.0003263151280484944,0.0010963149067980927,0.0014340175193704276,0.0007407790754275903,-65.59925599255992
1.115512550966916e-05,1.2836835201997806e-06,0.00034306984271599973,0.001132308328540622,0.0014878169802864907,0.0007818847433835318,-65.43925439254392
1.2142952112524565e-05,1.4381460441169098e-06,0.0003605576677617163,0.001169201287112245,0.0015433400530306027,0.0008249793812214471,-65.27925279252793
1.321154984057646e-05,1.6100880332509781e-06,0.00037880332777522784,0.0012070049981758356,0.0016006299638248909,0.0008701412802833526,-65.11925119251192
1.4366894959226322e-05,1.801348985741636e-06,0.0003978319812635622,0.001245730371536948,0.001659730596745478,0.0009174507782441901,-64.95924959249592
1.5615350234932953e-05,2.013945447567407e-06,0.0004176692062397721,0.0012853879905574228,0.0017206864924796952,0.0009669902543558676,-64.79924799247992
1.6963685264730973e-05,2.250086176802779e-06,0.0004383409843271225,0.0013259880913060885,0.0017835428470747447,0.0010188441207232906,-64.63924639246392
1.8419097501702097e-05,2.512188404617833e-06,0.0004598736833387986,0.0013675405414687984,0.0018483455107139168,0.001073098809415732,-64.47924479244791
1.9989233970152756e-05,2.8028952515482663e-06,0.00048229403829489197,0.0014100548190411368,0.0019151409865577297,0.0011298427552167783,-64.31924319243193
2.168221366115848e-05,3.125094358574012e-06,0.0005056291308404647,0.0014535399908282853,0.0019839764296884824,0.0011891663738166267,-64.15924159241592
2.3506650595812414e-05,3.4819377933268343e-06,0.0005299063670307362,0.0014980046907775667,0.002054899646197442,0.001251162035251515,-63.99923999239992
2.54716775399681e-05,3.876863292272214e-06,0.0005551534534519464,0.0015434570981703694,0.002127959092454556,0.001315924032396937,-63.83923839238392
2.7586970350474668e-05,4.313616899940995e-06,0.000581398371649079,0.0015899049157011254,0.00220320387460062,0.0013835485443235325,-63.67923679236792
2.9862772928884487e-05,4.796277066190822e-06,0.0006086693508345387,0.0016373553474721188,0.0022806837483017326,0.0014541335943276728,-63.519235192351914
3.230992275435133e-05,5.329280262015639e-06,0.0006369948388549796,0.0016858150769338924,0.002360449118805239,0.0015277790024524973,-63.359233592335926
3.493987696294469e-05,5.917448173558125e-06,0.0006664034713968126,0.0017352902448020565,0.002442551041335372,0.0016045863323196842,-63.19923199231992
3.776473893586953e-05,6.566016532671822e-06,0.0006969240394143942,0.0017857864269821646,0.0025270412218651,0.0016846588320973686,-63.03923039230392
4.079728535412571e-05,7.280665640589882e-06,0.0007285854547687271,0.0018373086125354062,0.002613972018298849,0.0017681013694358255,-62.87922879228792
4.405099367194668e-05,8.067552638938185e-06,0.0007614167140683713,0.001889861181718616,0.002703396442097872,0.0018550203602091496,-62.719227192271916
4.754006995594642e-05,8.933345579443855e-06,0.0007954468607084799,0.0019434478841330223,0.0027953681603768927,0.0019455236909089065,-62.55922559225591
5.12794770312818e-05,9.885259340189222e-06,0.0008307049451081825,0.001998071817016959,0.0028899414984966125,0.0020397206345441313,-62.399223992239925
5.528496287030823e-05,1.0931093432103206e-05,0.0008672199831511691,0.0020537354037185435,0.0029871714431721243,0.0021377217599113825,-62.23922239222392
5.9573089153181345e-05,1.2079271734519627e-05,0.000905020912838948,0.0021104403723849565,0.0030871136461116055,0.002239638834108545,-62.07922079220792
6.416125992366546e-05,1.3338884193029118e-05,0.0009441365491713621,0.002168187734905793,0.0031898244281938497,0.0023455847181773513,-61.91921919219192
6.906775025703705e-05,1.4719730506452657e-05,0.000984595537273879,0.0022269777661483667,0.0032953607841857352,0.0024556732557711757,-61.759217592175915
7.43117348504629e-05,1.6232365822539514e-05,0.0010264263037965645,0.002286809983523564,0.003403780387993131,0.0025700191547575655,-61.59921599215991
7.991331643959468e-05,1.7888148453893955e-05,0.0010696570066150387,0.002347683126921217,0.0035151415984297444,0.002688737861678477,-61.439214392143924
8.589355393837634e-05,1.969928961662646e-05,0.0011143154828693184,0.002409595139054523,0.0036295034654788443,0.0028119454290057994,-61.27921279212792
9.22744901922274e-05,2.1678905184266028e-05,0.0011604291953821076,0.002472543146253223,0.003746925737011824,0.00293975837514476,-61.11921119211192
9.907917922789726e-05,2.3841069438541405e-05,0.0012080251775040559,0.002536523439745764,0.0038674688659162586,0.0030722935371545004,-60.95920959209592
0.00010633171287635602,2.620087078668866e-05,0.0012571299764393429,0.002601531457470728,0.003991194017573116,0.003209667916171582,-60.799207992079914
0.00011405724663819597,2.877446940196804e-05,0.0013077695951110432,0.0026675617664580205,0.004118163077609227,0.0033519985155403913,-60.63920639206391
0.00012228202465413302,3.15791567300406e-05,0.0013599694326318454,0.0027346080458204073,0.004248438659836426,0.0034994021716728816,-60.47920479204792
0.00013103340363641137,3.463341678875627e-05,0.001413754223451926,0.002802663070396007,0.004382084114273101,0.0036519953776796127,-60.31920319203192
0.00014033987561019927,3.79569891727224e-05,0.0014691479752618813,0.002871718695082122,0.004519163535126925,0.0038098940998339847,-60.15920159201592
0.0001502310893075486,4.1570933656776705e-05,0.0015261739057350835,0.0029417658399009017,0.00465974176860031,0.003973213586952797,-59.999199991999916
0.00016073787005011126,4.549769627415265e-05,0.0015848543781998938,0.0030127944758368027,0.004803884420360961,0.004142068172797454,-59.83919839198391
0.00017189223795069402,4.976117672574623e-05,0.0016452108363385638,0.003084793611485669,0.004951657862500673,0.0043165710716225325,-59.67919679196791
0.00018372742425789264,5.438679695647462e-05,0.0017072637380157784,0.0031577512805547963,0.0051031292397849416,0.004496834167021175,-59.51919519195191
0.0001962778856625185,5.940157071329919e-05,0.0017710324883460362,0.0032316545302527805,0.005258366474974635,0.004682967794239992,-59.35919359193592
0.00020957931637940991,6.483417387711486e-05,0.0018365353721151313,0.0033064894106075147,0.005417438272979171,0.004875080516160271,-59.19919199191992
0.0002236686578134624,7.071501533742107e-05,0.0019037894856769033,0.0033822409647497834,0.005580414123577571,0.005073278893165958,-59.039190391903915
0.0002385841056145326,7.707630815459565e-05,0.001972810668452483,0.0034588932201994336,0.005747364302421044,0.005277667247144297,-58.87918879188791
0.00025436511392209864,8.395214072970664e-05,0.0020436134341647832,0.0035364291811899942,0.005918359870006582,0.005488347419889231,-58.71918719187191
0.00027105239659747717,9.137854767627196e-05,0.00211621090194666,0.003614830822066789,0.006093472668287198,0.00570541852620331,-58.55918559185591
0.0002886879252388772,9.939358006227708e-05,0.0021906147274664716,0.0036940790817925535,0.0062727753145601795,0.0059289767020189055,-58.39918399183992
0.00030731492377280737,0.00010803737466422314,0.002266835034219973,0.0037741538595934296,0.0064563411922504334,0.006159114847885337,-58.23918239182392
0.0003269778594142464,0.00011735222184810976,0.002344880345142225,0.003855034011776895,0.006644244438181476,0.006395922368193361,-58.079180791807914
0.0003477224297878028,0.00012738263166525932,0.0024247575146980694,0.0039366973497521295,0.006836559925903261,0.006639484906534701,-57.91917919179191
0.00036959554600263505,0.00013817539772383478,0.002506471661613825,0.004019120639281639,0.007033363244621934,0.006889884077618803,-57.75917759177591
0.000392645311475436,0.00014977965837005197,0.0025900261024170168,0.004102279600991694,0.007234730673254199,0.007147197196194396,-57.59917599175991
0.0004169209962982493,0.00016224695468656982,0.0026754222859545927,0.004186148912167446,0.007440739149106858,0.007411497003447967,-57.43917439174392
0.0004424730069513595,0.00017563128478959201,0.00276265972906344,0.00427070220985706,0.007651466230661452,0.00768285139137573,-57.279172791727916
0.0004693528511659875,0.00018998915388099565,0.0028517359535698136,0.0043559120953073,0.007866990053924097,0.007961323125648876,-57.119171191711914
0.0004976130977472207,0.0002053796194876479,0.0029426464247970584,0.004441750139751413,0.00808738928178334,0.008246969567515824,-56.95916959169591
0.0005273073311742823,0.00022186433129706894,0.003035384491762833,0.004528186891568089,0.008312743045802273,0.008539842395306876,-56.79916799167991
0.000558490100803255,0.00023950756497713723,0.0031299413292488754,0.004615191884828409,0.008543130879857676,0.00883998732612862,-56.639166391663906
0.0005912168645064832,0.00025837624934779105,0.0032263058819274144,0.004702733649245606,0.008778632645027293,0.009147443838356108,-56.47916479164792
0.0006255439265933255,0.0002785399862549648,0.0033244648107291284,0.004790779721540485,0.009019328445117904,0.009462244895550607,-56.319163191631915
0.0006615283698685084,0.00030007106248151937,0.003424402441637493,0.004879296658232921,0.009265298532220443,0.009784416672448755,-56.15916159161591
0.000699227981697419,0.0003230444530171181,0.0035261007170943747,0.004968250049867981,0.009516623201676892,0.01011397828368738,-55.99915999159991
0.0007387011739618035,0.0003475378149989261,0.0036295391502004577,0.0050576045366826205,0.009773382675843809,0.010450941515943179,-55.83915839158391
0.0007800068968050084,0.000373631471628169,0.0037346947818929126,0.005147323825716712,0.010035656976042803,0.010795310564181817,-55.679156791567905
0.000823204546082729,0.00040140838536412767,0.003841542141280555,0.005237370709369752,0.010303525782097164,0.011147081772723947,-55.51915519155192
0.0008683538644535031,0.0004309541196974523,0.003950053209314306,0.0053277070854021655,0.010577068278867428,0.011506243381847378,-55.359153591535915
0.0009155148360625888,0.0004623567888088808,0.00406019738596735,0.005418293978377509,0.010856362989216328,0.011872775280653947,-55.19915199151991
0.0009647475747937827,0.0004957069944280928,0.004171941461095972,0.005509091562539652,0.0111414875928575,0.0122466487669388,-55.03915039150391
0.0010161122060856843,0.0005310977492204161,0.004285249589147391,0.005600059186116132,0.011432518730569625,0.01262782631480501,-54.87914879148791
0.0010696687423322054,0.0005686243860470281,0.004400083267876096,0.005691155397036516,0.011729531793291847,0.013016261350771384,-54.719147191471905
0.0011254769519116043,0.0006083844524671576,0.004516401321224654,0.005782337970051935,0.01203260069565535,0.013411898039123408,-54.559145591455916
0.0011835962219138843,0.0006504775898789695,0.004634159886518758,0.0058735639352393695,0.01234179763355098,0.013814671077257859,-54.399143991439914
0.0012440854146629897,0.0006950053967293007,0.00475331240611946,0.005964789607871524,0.012657192825383273,0.014224505501768726,-54.23914239142391
0.001307002718158038,0.0007420712752617177,0.004873809623668466,0.00605597061963072,0.012978854236718941,0.014641316506019589,-54.07914079140791
0.0013724054905862213,0.0007917802613171904,0.0049955995850540814,0.006147061951142367,0.01330684728809986,0.015065009269939537,-53.919139191391906
0.0014403500990895733,0.0008442388367525456,0.005118627644217225,0.0062380179658010956,0.013641234545860439,0.015495478802772064,-53.759137591375904
0.001510891752997874,0.0008995547240985567,0.005242836473907672,0.006328792444859952,0.013982075395864053,0.015932609799495023,-53.599135991359915
0.0015840843317708564,0.0009578366631423377,0.005368166081491257,0.006419338623750528,0.014329425700154979,0.01637627651161635,-53.43913439134391
0.0016599802079240692,0.0010191941691872887,0.005494553829898418,0.006509609229599164,0.01468333743660894,0.016826342633033963,-53.27913279132791
0.0017386300652447299,0.0010837372728186852,0.005621934463794161,0.0065995565199020835,0.01504385832175966,0.017282661201631015,-53.11913119131191
0.0018200827126356855,0.0011515762410833988,0.005750240141038113,0.006689132322319536,0.015411031417076733,0.01774507451725585,-52.959129591295905
0.0019043848939579572,0.0012228212800785747,0.005879400469491893,0.00677828807554673,0.015784894719075154,0.018213414076713487,-52.7991279912799
0.0019915810942744104,0.001297582219035874,0.006009342549219024,0.006866974871216849,0.016165480733746157,0.018687500526369666,-52.639126391263915
0.002081713342929254,0.0013759681760851124,0.0061399910201102225,0.006955143496789137,0.016552816035913725,0.01916714363294086,-52.47912479124791
0.0021748210139295706,0.0014580872059831399,0.006271268114953855,0.007042744479372565,0.01694692081423913,0.019652142273012155,-52.31912319123191
0.0022709406241266856,0.0015440459302009228,0.00640309371795869,0.007129728130433655,0.017347808402719954,0.020142284441793976,-52.15912159121591
0.0023701056297254623,0.001633949149872767,0.0065353854287221475,0.007216044591334524,0.0177554847996549,0.020637347281591736,-51.999119991199905
0.0024723462216796914,0.0017278994422267894,0.006668058631623774,0.007301643879645355,0.01816994817517561,0.021137097130426268,-51.8391183911839
0.0025776891205604373,0.0018259967412341312,0.006801026570609702,0.007386475936173384,0.018591188368577656,0.021641289591203018,-51.679116791167914
0.002686157371512028,0.0019283379033356658,0.006934200429319656,0.0074704906726486275,0.019019186376815978,0.022149669621786508,-51.51911519115191
0.0027977701399364966,0.0020350162592282514,0.007067489416493658,0.007553638020004612,0.01945391383566302,0.02266197164629224,-51.35911359113591
0.002912542508572451,0.002146121152817809,0.007200800856581466,0.007635867977190861,0.019895332495162586,0.023177919687863778,-51.199111991119906
0.0030304852766571493,0.002261737468572053,0.007334040285462928,0.007717130660452024,0.020343393691144154,0.02369722752315403,-51.039110391103904
0.0031516047618820077,0.0023819451486317964,0.007467111551173193,0.00779737635300717,0.020798037814694168,0.024219598858681142,-50.8791087910879
0.003275902605870887,0.002506818701164847,0.007599916919512074,0.00787655555506127,0.02125919378160908,0.02474472752917839,-50.71910719107191
0.003403375583927549,0.0026364267015703225,0.007732357184402609,0.007954619034079674,0.021726778503980155,0.025272297718005404,-50.55910559105591
0.003534015419813001,0.0027708312882621863,0.007864331782849256,0.00803151787525507,0.022200696366179516,0.025801984199633216,-50.39910399103991
0.003667808606325857,0.0029100876548791895,0.007995738914332506,0.008107203532095604,0.022680838707633155,0.02633345260416257,-50.239102391023906
0.003804736232467672,0.003054243540881748,0.008126475664462264,0.008181627877061642,0.023167083314873327,0.02686635970377694,-50.0791007910079
0.003944773817981916,0.003203338722605066,0.00825643813269908,0.008254743252178072,0.023659293925464134,0.027400353720976,-49.9190991909919
0.004087891156058498,0.0033574045069402164,0.00838552156393875,0.008326502519548282,0.024157319746485748,0.02793507465837718,-49.7590975909759
0.004234052164996014,0.0035164632299102584,0.008513620483742861,0.00839685911169545,0.024660994990344583,0.02847015464981461,-49.59909599095991
0.004383214749610985,0.0036805277624958966,0.008640628836985426,0.00846576708165647,0.02517013843074878,0.029005218332406366,-49.43909439094391
0.004535330673176656,0.0038496010261432814,0.008766440129673255,0.008533181152753429,0.02568455298174662,0.02953988323920134,-49.279092790927905
0.004690345440664522,0.00402367552045549,0.00889094757368657,0.00859905676796766,0.026204025302774242,0.03007376021195928,-49.1190911909119
0.0048481981940479415,0.004202732865626342,0.009014044234174859,0.008663350138841343,0.026728325432690485,0.030606453833557503,-48.9590895908959
0.0050088216204104115,0.004386743362221518,0.009135623179332671,0.008726018293831753,0.02725720645579635,0.031137562879460068,-48.7990879908799
0.005172141873580344,0.004575665570945162,0.009255577632270147,0.008787019126043735,0.02779040420283939,0.031666680787627036,-48.63908639086391
0.005338078509989955,0.00476944591505054,0.00937380112468391,0.008846311440266432,0.028327636989990836,0.03219339614618456,-48.47908479084791
0.005506544439427532,0.004968018308058907,0.009490187652025245,0.00890385499924077,0.028868605398752453,0.03271729319811922,-48.319083190831904
0.005677445891321128,0.005171303809442949,0.009604631829855135,0.008959610569085293,0.029412992099704504,0.03323795236220674,-48.1590815908159
0.005850682397155837,0.005379210310906511,0.009717029051068334,0.009013539963808579,0.02996046172293926,0.033754950769329516,-47.9990799907999
0.006026146789588122,0.005591632255853271,0.009827275643662784,0.00906560608883768,0.030510660777941855,0.034267862813286094,-47.8390783907839
0.006203725218777937,0.005808450394580919,0.009935269028725217,0.009115772983493238,0.03106321762557731,0.03477626071514502,-47.67907679076791
0.006383297186413585,0.0060295315776654045,0.010040907878299475,0.009164005862343285,0.03161774250472175,0.03527971510014674,-47.519075190751906
0.006564735597854439,0.0062547285899103135,0.010144092272800291,0.009210271155369142,0.03217382761593419,0.03577779558610998,-47.3590735907359
0.006747906832764674,0.006483880027131384,0.01024472385763298,0.009254536546878663,0.032731047264407696,0.03627007138225607,-47.1990719907199
0.0069326708345548585,0.0067168102179228206,0.010342705998677459,0.009296771013103607,0.033288958064258745,0.03675611189732134,-47.0390703907039
0.007118881218890005,0.00695332919241327,0.010437943936294474,0.009336944858420028,0.03384709920601778,0.037235487355789215,-46.879068790687896
0.007306385401461208,0.007193232699863327,0.010530344937511999,0.009375029750132435,0.03440499278896897,0.03770776942103673,-46.71906719067191
0.007495024745154246,0.007436302276785001,0.010619818446051092,0.009410998751764786,0.034962144219755124,0.03817253182415724,-46.559065590655905
0.0076846347266820375,0.0076823053670756185,0.010706276229852398,0.009444826354803468,0.03551804267841352,0.03862935099718918,-46.3990639906399
0.007875045122680219,0.007930995495457251,0.010789632525768013,0.009476488508840026,0.03607216165274551,0.03907780670945539,-46.2390623906239
0.00806608021519451,0.00818211249529552,0.010869804181087121,0.009505962650063697,0.03662395954164085,0.03951748270569183,-46.0790607906079
0.008257559016417374,0.008435382791642288,0.010946710791569208,0.009533227728056544,0.03717288032768541,0.03994796734462484,-45.919059190591895
0.008449295512458611,0.008690519740104541,0.011020274835664536,0.009558264230846634,0.03771835431907432,0.04036885423663917,-45.75905759057591
0.008641098925860995,0.008947224021888705,0.01109042180460873,0.009581054208177548,0.03825979896053598,0.040779742879165644,-45.599055990559904
0.008832773996497451,0.009205184095105888,0.011157080328086008,0.009601581292955333,0.03879661971264468,0.04118023928840738,-45.4390543905439
0.009024121280412349,0.009464076702152498,0.0112201822951648,0.00961983072083706,0.039328210998566704,0.041569956626018874,-45.2790527905279
0.009214937466094414,0.009723567432700935,0.011279662970218981,0.009635789347928175,0.0398539572169425,0.04194851581934934,-45.1190511905119
0.009405015707595077,0.009983311341550742,0.011335461103558693,0.009649445666558912,0.04037323381926342,0.04231554617386445,-44.959049590495894
0.009594145973832631,0.010242953620301807,0.011387519036506224,0.009660789819113292,0.040885408449753954,0.04267068597636659,-44.799047990479906
0.009782115413350605,0.010502130321520323,0.011435782800664691,0.009669813609887437,0.04138984214542306,0.04301358308764391,-44.6390463904639
0.009968708733727584,0.010760469133776089,0.011480202211140279,0.009676510514957212,0.04188589059360116,0.04334389552319203,-44.4790447904479
0.010153708594767557,0.011017590205640235,0.011520730953492741,0.009680875690038584,0.042372905443939124,0.043661292020671226,-44.3190431904319
0.010336896014532514,0.011273107016444248,0.011557326664203267,0.009682905976327436,0.04285023567150746,0.04396545259278299,-44.159041590415896
0.01051805078721525,0.011526627291319433,0.011589951004463991,0.009682599904308982,0.04331722898730766,0.04425606906427618,-43.99903999039989
0.01069695191178895,0.01177775395776019,0.011618569727109297,0.009679957695530327,0.04377323329218877,0.04453284559182279,-43.839038390383905
0.010873378030312165,0.012026086140687937,0.011643152736525319,0.009674981262333227,0.04421759816985865,0.044795499165536976,-43.6790367903679
0.011047107874712983,0.01227122019273595,0.011663674141390927,0.009667674205547455,0.044649676414387315,0.04504376009094765,-43.5190351903519
0.01121792072082607,0.01251275075623241,0.011680112300120867,0.009658041810148689,0.04506882558732803,0.045277372450276916,-43.3590335903359
0.01138559684840924,0.01275027185312877,0.011692449858899345,0.009646091038888251,0.0454744095993256,0.04549609454192008,-43.199031990319895
0.011549918005824457,0.012983377998907576,0.011700673782210538,0.009631830523905453,0.045865800310848026,0.04569969929707123,-43.03903039030389
0.011710667878030712,0.013211665336307875,0.011704775375790824,0.009615270556336663,0.046242379146466076,0.04588797467248946,-42.879028790287904
0.011867632556503903,0.013434732784529954,0.011704750301946145,0.009596423073938638,0.04660353871691864,0.046060724018454804,-42.7190271902719
0.01202060100967139,0.013652183199424836,0.011700598587196753,0.009575301646746952,0.04694868444303993,0.04621776642102024,-42.5590255902559
0.01216936555242744,0.013863624540040883,0.011692324622230462,0.00955192146079362,0.0472772361754924,0.04635893701772609,-42.3990239902399
0.012313722313279072,0.014068671036788528,0.01167993715416454,0.009526299299911277,0.04758862980414342,0.04648408728600551,-42.239022390223894
0.012453471697661467,0.014266944356398543,0.011663449271135303,0.009498453525654448,0.04788231885084976,0.04659308530357499,-42.07902079020789
0.012588418845957235,0.014458074758788136,0.011642878379253435,0.00946840405537152,0.048157776039370326,0.046685815980170665,-41.919019190191904
0.012718374084755095,0.014641702240914623,0.011618246171981832,0.009436172338464041,0.04841449483611559,0.04676218126006077,-41.7590175901759
0.012843153369890383,0.014817477662687954,0.011589578592011388,0.00940178133087305,0.04865199095546277,0.0468221002948353,-41.5990159901599
0.012962578719823457,0.014985063850033157,0.011556905785728485,0.00936525546783481,0.04886980382341991,0.0468655095860468,-41.439014390143896
0.013076478637930747,0.01514413667023952,0.011520262050386093,0.009326620634951268,0.049067497993507625,0.04689236309734979,-41.279012790127894
0.013184688522308734,0.015294386074807776,0.011479685774108038,0.009285904137623162,0.04924466450884771,0.046902632335861866,-41.11901119011189
0.013287051061722217,0.015435517105107585,0.011435219368873368,0.009243134668896324,0.04940092220459949,0.04689630640254494,-40.9590095900959
0.013383416616365225,0.015567250856286132,0.011386909196644555,0.009198342275774086,0.04953591894506999,0.04687339201148208,-40.7990079900799
0.013473643582145662,0.015689325395023216,0.011334805488819709,0.009151558324051274,0.049649332790039864,0.04683391347800217,-40.6390063900639
0.013557598737253337,0.01580149662690929,0.011278962259204545,0.009102815461727247,0.049740873085094416,0.04677791267568177,-40.479004790047895
0.0136351575698246,0.015903539109428218,0.011219437210715309,0.00905214758105778,0.04981028147102591,0.0467054489623307,-40.31900319003189
0.013706204585575987,0.015995246806756274,0.011156291636038065,0.008999589779307478,0.049857332807677804,0.04661659907514429,-40.15900159001589
0.013770633594343213,0.016076433782841154,0.01108959031248381,0.008945178318266321,0.04988183600793449,0.04651145699528183,-39.9989999899999
0.013828347974530687,0.016146934829498246,0.011019401391291712,0.008888950582595572,0.049883634777916214,0.046390133782205495,-39.8389983899839
0.013879260914549685,0.01620660602655471,0.010945796281645333,0.008830945037070118,0.04986260825981985,0.04625275737818869,-39.6789967899679
0.013923295630400932,0.016255325231383417,0.010868849529677805,0.008771201182785444,0.0498186715742476,0.04609947238347535,-39.518995189951895
0.01396038555863817,0.016292992495495998,0.010788638692752933,0.008709759512399063,0.049751776259286166,0.04593043980264352,-39.35899358993589
0.013990474524033986,0.016319530406206432,0.010705244209318671,0.008646661464477215,0.049661910604036304,0.045745836762795686,-39.19899198991989
0.014013516881356738,0.01633488435173033,0.010618749264638402,0.008581949377018774,0.04954909987474424,0.04554585620426661,-39.03899038990389
0.014029477630757717,0.016339022708449332,0.01052923965271338,0.008515666440229152,0.04941340643214958,0.04533070654460439,-38.8789887898879
0.014038332506360262,0.016331936949441735,0.010436803634716597,0.008447856648617722,0.04925492973913631,0.04510061131664391,-38.718987189871896
0.014040068037736919,0.016313641673758122,0.010341531794264574,0.008378564752492976,0.04907380625825259,0.0448558087815526,-38.558985589855894
0.014034681584056713,0.01628417455630123,0.010243516889858388,0.008307836208929904,0.04887020923914623,0.04459655151778551,-38.39898398983989
0.014022181340781252,0.016243596218550926,0.010142853704829561,0.008235717132284551,0.048644348396446296,0.044323105986942626,-38.23898238982389
0.014002586318886004,0.01619199002075516,0.010039638895129502,0.008162254244330803,0.048396469479101464,0.04403575207757237,-38.078980789807886
0.01397592629668042,0.016129461776584007,0.009933970835303268,0.00808749482409443,0.04812685373266212,0.04373478262801417,-37.9189791897919
0.013942241744397836,0.016056139391613836,0.009825949462989664,0.008011486657459316,0.047835817256460654,0.04342050292941812,-37.758977589775895
0.013901583721822496,0.01597217242737056,0.009715676122289936,0.007934277986620587,0.04752371025810358,0.04309323021012189,-37.59897598975989
0.013854013749316121,0.01587773159301153,0.009603253406346343,0.007855917459458761,0.047190916208132754,0.04275329310260229,-37.43897438974389
0.013799603652700084,0.01577300816706429,0.009488784999470444,0.007776454078908691,0.046837850898143504,0.042401031094254325,-37.27897278972789
0.013738435382540621,0.015658213351963574,0.00937237551915812,0.007695937152396235,0.04646496140605855,0.042036793963280736,-37.118971189711885
0.013670600808473541,0.015533577564434898,0.00925413035832483,0.007614416241414847,0.04607272497264811,0.04166094120100197,-36.9589695896959
0.013596201489290895,0.015399349665061197,0.009134155528090097,0.0075319411113132185,0.0456616477937554,0.04127384142191919,-36.798967989679895
0.013515348419595048,0.015255796130637283,0.009012557501435139,0.007448561681364226,0.0452322637330317,0.040875871762882744,-36.63896638966389
0.013428161753904579,0.015103200173162988,0.008889443058050884,0.007364327975183932,0.04478513296030238,0.04046741727273219,-36.47896478964789
0.013334770509171867,0.014941860809549613,0.008764919130687238,0.00727929007156835,0.04432084052097707,0.040048870293786294,-36.31896318963189
0.013235312246743043,0.01477209188631329,0.008639092653306238,0.0071934980558140535,0.04383999484217663,0.03962062983656772,-36.158961589615885
0.013129932734857372,0.014594221063702896,0.008512070411333473,0.00710700197158726,0.043343226181480995,0.03918310094915036,-35.998959989599896
0.013018785592844561,0.014408588763858077,0.008383958894292835,0.007019851773404266,0.04283118502439974,0.03873669408251636,-35.838958389583894
0.012902031918235055,0.014215547087714395,0.008254864151099904,0.006932097279784504,0.04230454043683386,0.03828182445330557,-35.67895678956789
0.012779839898049093,0.01401545870546632,0.008124891648278532,0.006843788127135426,0.04176397837892937,0.03781891140533067,-35.51895518955189
0.012652384405576157,0.013808695725466008,0.00799414613135436,0.0067549737244266455,0.041210199986823175,0.03734837777121969,-35.358953589535886
0.012519846583996094,0.013595638546474758,0.007862731489667176,0.006665703208708661,0.04064391982884669,0.036870649235531114,-35.198951989519884
0.01238241341822731,0.013376674698196126,0.007730750624831997,0.0065760254015293776,0.04006586414278481,0.036386153700667494,-35.038950389503896
0.012240277296415416,0.013152197675004394,0.007598305323066028,0.006485988766299412,0.03947676906078525,0.03589532065688948,-34.87894878948789
0.012093635562498145,0.01292260576774081,0.007465496131585949,0.006395641366655043,0.03887737882847995,0.03539858055770734,-34.71894718947189
0.01194269006129801,0.012688300898381816,0.007332422239266177,0.0063050308258651485,0.03826844402481115,0.03489636420189506,-34.55894558945589
0.011787646677604693,0.012449687462291416,0.007199181361735536,0.006214204287326235,0.03765071978895788,0.03438910212334119,-34.398943989439886
0.011628714870712917,0.012207171182652741,0.007065869631075589,0.006123208376187199,0.03702496406062845,0.03387722398991357,-34.23894238942388
0.01146610720587985,0.011961157981534248,0.006932581490269828,0.006032089162142964,0.03639193583982689,0.033361158012477146,-34.078940789407895
0.011300038884158092,0.01171205287188438,0.006799409592538532,0.005940892123433564,0.03575239347201457,0.03284133036516177,-33.91893918939189
0.011130727272047182,0.011460258874567184,0.006666444705679967,0.0058496621120829,0.03510709296437723,0.0323181646179348,-33.75893758937589
0.010958391432386775,0.011206175964350086,0.00653377562152363,0.005758443320408477,0.03445678633866897,0.03179208118248504,-33.59893598935989
0.010783251657890616,0.010950200048537872,0.006401489070587214,0.005667279248831161,0.03380222002584686,0.03126349677237821,-33.438934389343885
0.01060552900869015,0.010692721981713222,0.006269669642014187,0.005576212675011159,0.033144133307428714,0.03073282387839293,-33.27893278932788
0.010425444855221783,0.010434126619797108,0.006138399708854614,0.00548528562433391,0.03248325680820742,0.030200470259894658,-33.118931189311894
0.010243220427751935,0.01017479191638312,0.006007759358737329,0.005394539341766837,0.03182031104463922,0.029666838453051157,-32.95892958929589
0.010059076373789874,0.009915088064030998,0.005877826329967838,0.005304014265105458,0.031156005032894167,0.029132325296639235,-32.79892798927989
0.009873232324589226,0.009655376682926441,0.005748675953071803,0.00521374999962448,0.030491034960211952,0.028597321476134772,-32.63892638926389
0.009685906471886871,0.009396010059031182,0.005620381097790737,0.005123785294147101,0.029826082922855893,0.028062211086722775,-32.478924789247884
0.009497315155971254,0.00913733043355856,0.005493012125522836,0.005034158018543077,0.029161815733595726,0.0275273712158054,-32.31892318923188
0.009307672466112516,0.008879669345319176,0.005366636847188816,0.004944905142663483,0.028498883801283993,0.026993171545527894,-32.15892158921589
0.009117189854323969,0.00862334702718933,0.0052413204864897416,0.0048560627167176405,0.027837920084720684,0.026459973975783344,-31.99891998919989
0.008926075763359232,0.00836867185766487,0.005117125648511698,0.004767665853095184,0.027179539122630984,0.02592813226809916,-31.83891838918389
0.00873453526978099,0.008115939868174446,0.004994112293619671,0.0046797487096336245,0.02652433614120873,0.025397991710747553,-31.678916789167886
0.008542769742868,0.007865434306543665,0.004872337716571948,0.004592344474329541,0.025872886240313156,0.02486988880536532,-31.518915189151883
0.008350976520055167,0.00761742525672381,0.004751856530774868,0.004505485351488992,0.025225743659042836,0.024344150975308818,-31.35891358913588
0.008159348599528852,0.007372169314629335,0.004632720657587361,0.004419202549310519,0.024583441121056065,0.023821096295912326,-31.198911989119892
0.007968074350525682,0.007129909319667321,0.004514979320574379,0.0043335262688917135,0.023946489259659094,0.02330103324676089,-31.03891038910389
0.007777337241809228,0.0068908741412922435,0.004398679044599084,0.004248485694648336,0.02331537612234889,0.022784260486033,-30.878908789087887
0.007587315588723741,0.006655278519679584,0.004283863659634143,0.0041641089861324905,0.02269056675416996,0.0222710666469121,-30.718907189071885
0.007398182319150366,0.00642332295938629,0.004170574309164447,0.0040804232712345935,0.022072502858935698,0.021761730156012942,-30.558905589055883
0.0072101047586167945,0.006195193674652786,0.004058849463045361,0.003997454640751684,0.021461602537066624,0.021256519073715615,-30.39890398903988
0.007023244434738361,0.0059710625848030646,0.003948724934673457,0.003915228144302726,0.02085826009851761,0.02075569095624897,-30.23890238902389
0.006837756901096207,0.0057510873580158385,0.003840233902319772,0.003833767787569661,0.02026284594900148,0.02025949273931515,-30.07890078900789
0.006653791580587732,0.0055354115015726155,0.0037334069344697523,0.003753096530841316,0.019675706547471417,0.019768160643000035,-29.918899188991887
0.006471491628214912,0.005324164496536454,0.003628272019008138,0.0036732362888352963,0.0190971644325948,0.019281920097666713,-29.758897588975884
0.006290993813209345,0.005117461974680812,0.0035248545960824395,0.003594207931771662,0.018527518315744257,0.018800985690486428,-29.59889598895988
0.006112428420327659,0.0049154059353694445,0.0034231775944740936,0.0035160312876704614,0.017967043237841658,0.018325561132218518,-29.43889438894388
0.005935919170088295,0.0047180849999869335,0.0033232614713027213,0.003438725145843785,0.017415990787221735,0.01785583924381097,-29.278892788927877
0.005761583157660855,0.004525574701434863,0.003225124254885741,0.0033623072615516806,0.01687458937553314,0.017392001962355418,-29.11889118891189
0.005589530810061836,0.0043379378061406985,0.003128781590572947,0.0032867943617898806,0.016343044568565362,0.01693422036589462,-28.958889588895886
0.005419865861256843,0.0041552246659751265,0.003034246789373832,0.003212202152176293,0.015821539468782096,0.01648265471654778,-28.798887988879883
0.0052526853447178124,0.003977473597437718,0.002941530879193748,0.003138545324901855,0.015310235146251133,0.01603745452138693,-28.63888638886388
0.005088079602936683,0.0038047112854515397,0.002850642658494332,0.003065837567710541,0.014809271114593094,0.015598758610470298,-28.47888478884788
0.004926132313352341,0.0036369532091022937,0.002761588752193185,0.002994091573872323,0.014318765848520144,0.015166695231411507,-28.318883188831876
0.004766920530107061,0.003474204086667605,0.00267437366961797,0.0029233190531120215,0.013838817339504657,0.014741382159840376,-28.158881588815888
0.0046105147410113855,0.003316458337305593,0.0025889998643307643,0.0028535307434562605,0.013369503686104003,0.01432292682508891,-27.998879988799885
0.004456978939063172,0.0031637005568090374,0.0025054677956398335,0.0027847364239601733,0.012910883715472216,0.013911426450418781,-27.838878388783883
0.004306370707836205,0.003015906004879937,0.002423775991617342,0.0027169449282747477,0.012462997632608231,0.013506968207088,-27.67887678876788
0.004158741320028122,0.002873041101440455,0.002343921113443924,0.002650164159015436,0.012025867693927937,0.013109629381542597,-27.518875188751878
0.004014135848434663,0.002735063929566978,0.002265898020903391,0.0025844011028921155,0.011599498901797147,0.012719477555006138,-27.358873588735875
0.0038725932885985714,0.00260192474271502,0.002189699838853843,0.0025196618465602788,0.011183879716727713,0.012336570794731286,-27.198871988719887
0.003734146692366237,0.0024735664739921,0.002115318024504714,0.002455951593152988,0.010778982784016039,0.011960957856170249,-27.038870388703884
0.003598823311573857,0.0023499252453333327,0.0020427424353331586,0.002393274679453206,0.010384765671693556,0.01159267839531711,-26.878868788687882
0.003466644751076372,0.002230930874538192,0.001971961397476897,0.002331634593665761,0.010001171616757223,0.011231763190471328,-26.71886718867188
0.003337627130328267,0.002116507378237355,0.0019029617744452953,0.0022710339937485075,0.009628130276759425,0.010878234372672685,-26.558865588655877
0.003211781252723643,0.0020065734689731934,0.0018357290359948858,0.0022114747262621634,0.009265558483953886,0.010532105664059035,-26.398863988639874
0.0030891127819050465,0.0019010430446965165,0.0017702473270205339,0.002152957845698562,0.00891336099932066,0.010193382623402374,-26.238862388623886
0.0029696224242552974,0.0017998256691040806,0.001706499536318525,0.0020954836342472207,0.008571431263925124,0.009862062898084188,-26.078860788607884
0.0028533061167947513,0.0017028270413656742,0.001644467365083323,0.0020390516219606063,0.008239652145204356,0.009538136481779631,-25.91885918859188
0.0027401552197167064,0.0016099494539147823,0.001584131395005147,0.001983660607278612,0.007917896675915248,0.009221585977128105,-25.75885758857588
0.002630156712807381,0.0015210922371031352,0.0015254711558413772,0.0019293086778734464,0.007606028783625339,0.00891238686268047,-25.598855988559876
0.0025232933950124718,0.0014361521896448415,0.0014684651923406145,0.0018759932317765106,0.007303904008774438,0.008610507763424974,-25.438854388543874
0.0024195440864305355,0.001355023993900588,0.0014130911304041918,0.0018237109987494298,0.007011370209484745,0.008315910724208614,-25.278852788527885
0.002318883832033605,0.001277600615175235,0.0013593257423760489,0.0017724580618620435,0.006728268251446933,0.008028551485386335,-25.118851188511883
0.002221284106437895,0.0012037736843227816,0.0013071450113580996,0.0017222298792408837,0.00645443268135966,0.0077483797600477935,-24.95884958849588
0.0021267130190711645,0.001133433863070062,0.0012565241944543118,0.0016730213059522638,0.006189692382547803,0.007475339512189086,-24.798847988479878
0.002035135519109236,0.001066471191584859,0.001207437884853109,0.0016248266159850423,0.005933871211532247,0.007209369235217014,-24.638846388463875
0.0019465135995810551,0.0010027754179240378,0.001159860072663913,0.001577639524298835,0.00568678861446784,0.006950402230193428,-24.478844788447873
0.0018608065000700414,0.0009422363091030912,0.0011137642044298831,0.0015314532089043661,0.005448260222507382,0.006698366883248846,-24.318843188431885
0.0017779709074687883,0.0008847439436292812,0.0010691232412451826,0.0014862603329434969,0.005218098425286749,0.006453186941616449,-24.158841588415882
0.001697961154274596,0.0008301889854364971,0.0010259097154112907,0.0014420530667375259,0.00499611292185991,0.0062147817877612034,-23.99883998839988
0.0016207294139440314,0.0007784629392500852,0.0009840957855729417,0.0013988231097731515,0.00478211124854021,0.005983066711101451,-23.838838388383877
0.0015462258928564837,0.0007294583874949387,0.0009436532902804027,0.001356561712596642,0.004575899283228466,0.0057579531768454095,-23.678836788367875
0.0014743990184684637,0.0006830692089389675,0.0009045537999306778,0.0013152596985877161,0.004377281725925825,0.005539349091489032,-23.518835188351872
0.001405195623272533,0.0006391907793372674,0.000866768667046139,0.0012749074855856832,0.004186062555241623,0.0053271590645468485,-23.358833588335884
0.001338561124206953,0.0005977201544093989,0.0008302690748547009,0.001235495107341483,0.004002045460812536,0.0051212846661123955,-23.19883198831988
0.0012744396971943388,0.0005585562355434364,0.0007950260841413867,0.0011970122347703686,0.003825034251649531,0.004921624679870688,-23.03883038830388
0.0012127744465193235,0.0005215999186754847,0.0007610106783463836,0.0011594481969810298,0.0036548332405222216,0.004728075351209832,-22.878828788287876
0.0011535075687870082,0.00048675422684274234,0.0007281938068901218,0.0011227920020581148,0.003491247604577987,0.004540530630105197,-22.718827188271874
0.001096580511234888,0.00045392442695153475,0.0006965464267109305,0.0010870323575762166,0.0033340837224735695,0.004358882408474374,-22.55882558825587
0.0010419341242015431,0.0004230181313394417,0.0006660395420057707,0.001052157690824543,0.003183149488371299,0.004183020751726582,-22.398823988239883
0.000989508807585082,0.00039394538474276476,0.0006366442421693002,0.0010181561687225588,0.0030382546032197057,0.004012834124255118,-22.23882238822388
0.0009392446511534587,0.00036661873730737046,0.000608331737931093,0.0009850157174081467,0.002899210843800069,0.003848209608646346,-22.078820788207878
0.0008910815685967203,0.0003409533043023945,0.0005810733956951392,0.0009527240414808187,0.0027658323100750726,0.0036890331184026713,-21.918819188191875
0.0008449594252385699,0.0003168668132129829,0.0005548407700899666,0.0009212686428837836,0.0026379356514253027,0.003535189604001315,-21.758817588175873
0.0008008181593506142,0.0002942796389000546,0.0005296056347416455,0.0008906368394097041,0.002515340272402018,0.003386563252133855,-21.59881598815987
0.0007585978970377483,0.00027311482752247614,0.0005053400112856673,0.0008608157828161488,0.0023978685186620404,0.003243037677994562,-21.438814388143882
0.0007182390606869056,0.00025329810992022933,0.00048201619663723074,0.0008317924765378306,0.0022853458437821963,0.003104496110507702,-21.27881278812788
0.0006796824709941642,0.00023475790515646228,0.000459606788542797,0.0008035537929838423,0.0021776009576772656,0.002970821570406105,-21.118811188111877
0.0006428694426064602,0.00021742531491186797,0.00043808470943882343,0.0007760864904091373,0.002074465957366289,0.0028418970410937104,-20.958809588095875
0.0006077418734344088,0.00020123410941718368,0.00041742322864653914,0.0007493772293506348,0.001975776440848766,0.0027176056322457034,-20.798807988079872
0.0005742423277115325,0.0001861207055987675,0.00039759598293424473,0.0007234125886193181,0.0018813716048638627,0.0025978307361191537,-20.63880638806387
0.0005423141128927133,0.00017202413809864846,0.00037857699548112645,0.0006981790808407715,0.0017910943273132596,0.0024824561765659126,-20.47880478804788
0.0005119013505009156,0.0001588860238143687,0.00036034069327877777,0.0006736631675375593,0.0017047912351316212,0.0023713663507576206,-20.31880318803188
0.0004829490410461655,0.00014665052058568577,0.00034286192300874633,0.0006498512737479197,0.0016223127583885172,0.0022644463636499537,-20.158801588015876
0.0004554031231542628,0.00013526428063492872,0.0003261159654361692,0.0006267298021760975,0.0015435131714014584,0.0021615821552293463,-19.998799987999874
0.00042921052705511897,0.00012467639934595737,0.00031007854836130323,0.0006042851468706742,0.0014682506216330538,0.0020626606206013125,-19.83879838798387
0.0004043192225915283,0.0001148383599433362,0.0002947258581721522,0.0005825037064281305,0.0013963871471351472,0.001967569722993889,-19.67879678796787
0.00038067826191899855,0.00010570397460885612,0.0002800345500426675,0.0005613718967197445,0.0013277886832902667,0.0018761985997637056,-19.518795187951866
0.0003582378170757653,9.722932254713074e-05,0.00026598175682209885,0.0005408761631408171,0.0012623250595858119,0.0017884376615050187,-19.358793587935878
0.0003369492126094427,8.937268548585591e-05,0.0002525450966619343,0.0005210029923820222,0.001199869987139255,0.0017041786843741559,-19.198791987919876
0.0003167649534529857,8.209448106972091e-05,0.00023970267942765325,0.0005017389237235045,0.0011403010376738643,0.0016233148957530937,-19.038790387903873
0.0002976387482476154,7.53571945799999e-05,0.00022743311194300985,0.00048307055985307676,0.001083499614623702,0.0015457410533860603,-18.87878878788787
0.0002795255283144061,6.912530938483924e-05,0.0002157155021150332,0.000464984577210643,0.0010293509170249213,0.0014713535181327285,-18.718787187871868
0.0002623814624791514,6.336523649824735e-05,0.00020452946198813642,0.00044746773586167406,0.0009777438968272092,0.001400050320490105,-18.558785587855866
0.0002461639679570936,5.80452435990099e-05,0.00019385510977585593,0.0004305068889032215,0.0009285712102351809,0.0013317312210430585,-18.398783987839877
0.0002308317175051416,5.313538383431711e-05,0.00018367307091869228,0.0004140889914066075,0.0008817291636647585,0.0012662977650104146,-18.238782387823875
0.0002163446430493755,4.8607424706937666e-05,0.00017396447821637948,0.00039820110890156945,0.0008371176548742621,0.0012036533310598341,-18.078780787807872
0.00020266393599492692,4.443477731938514e-05,0.00016471097108259375,0.00038283042540715505,0.0007946401098040608,0.0011437031745699482,-17.91877918779187
0.0001897520444239284,4.059242622386591e-05,0.00015589469396972861,0.0003679642510152755,0.0007542034156327984,0.0010863544655230614,-17.758777587775867
0.00017757266738503417,3.705686010288477e-05,0.00014749829401084202,0.0003535900290333069,0.0007157178505320678,0.0010315163212155645,-17.598775987759865
0.00016609074647520864,3.3806003482343836e-05,0.00013950491792525464,0.0003396953426926192,0.0006790970105754263,0.0009790998339764608,-17.438774387743877
0.0001552724549110279,3.081914965684073e-05,0.00013189820823357988,0.00032626792143035783,0.0006442577342318063,0.0009290180940868836,-17.278772787727874
0.00014508518428278143,2.807689498571929e-05,0.00012466229882716087,0.00031329564675225906,0.0006111200248479206,0.0008811862080955097,-17.11877118771187
0.0001354975291801293,2.5561074698266806e-05,0.00011778180993600268,0.00030076655768460704,0.0005796069714990059,0.0008355213127257906,-16.95876958769587
0.0001264792698731671,2.3254700327353548e-05,0.00011124184253834908,0.0002886688558238632,0.0005496446685627329,0.0007919425845717742,-16.798767987679867
0.00011800135322738438,2.1141898872759672e-05,0.0001050279722540202,0.0002769909099927862,0.0005211621343469505,0.0007503712457792319,-16.638766387663864
0.00011003587202532868,1.9207853778462284e-05,9.912624276256013e-05,0.00026572126051218253,0.0004940912290785336,0.0007107305659083749,-16.478764787647876
0.00010255604286177768,1.7438747792262064e-05,9.352315878609754e-05,0.0002548486230976752,0.00046836657253781247,0.000672945860173418,-16.318763187631873
9.55361827730003e-05,1.5821707761313535e-05,8.820567867566474e-05,0.00024436189239115003,0.0004439254616011286,0.0006369444842528289,-16.15876158761587
8.895168475420036e-05,1.4344751403363095e-05,8.316120663847349e-05,0.00023425014513671924,0.0004207077879327562,0.0006026558258620529,-15.998759987599868
8.277899231263382e-05,1.29967360808013e-05,7.837758464242093e-05,0.00022450264301125135,0.0003986559560471074,0.0005700112932782562,-15.838758387583866
7.699557319712925e-05,1.1767309592955973e-05,7.38430840327977e-05,0.00021510883511966536,0.0003777148019425483,0.0005389443010037957,-15.678756787567863
7.157989243789732e-05,1.0646862991378531e-05,6.954639689487625e-05,0.0002060583601653248,0.00035783151248947693,0.0005093902527520331,-15.518755187551875
6.651138482362282e-05,9.626485413171644e-06,6.547662719472786e-05,0.00019734104830596943,0.00033895554573749176,0.0004812865219356094,-15.358753587535872
6.177042693592589e-05,8.69792091864209e-06,6.162328172929133e-05,0.00018894692270572108,0.0003210385522895804,0.00045457242983359096,-15.19875198751987
5.7338308854362786e-05,7.853527311693341e-06,5.797626091536282e-05,0.0001808662007937354,0.00030403429787515435,0.000429189221609756,-15.038750387503868
5.3197205638297236e-05,7.08623691437154e-06,5.452584944583861e-05,0.00017308929524014103,0.0002878985872386484,0.00040508004035006833,-14.878748787487865
4.9330148685172495e-05,6.389519260792549e-06,5.126270684019734e-05,0.0001656068146598958,0.0002725891894460582,0.0003821898992828108,-14.718747187471863
4.5720997058028286e-05,5.757345670272255e-06,4.817785791486533e-05,0.00015840956405520595,0.0002580657646983718,0.0003604656523401419,-14.558745587455874
4.235440886852288e-05,5.184155654809876e-06,4.526268319778146e-05,0.00015148854500711517,0.0002442897927282294,0.00033985596321492077,-14.398743987439872
3.921581279529327e-05,4.664825112093832e-06,4.2508909310162927e-05,0.00014483495562684392,0.00023122450284439395,0.0003203112730616412,-14.23874238742387
3.6291379811190544e-05,4.1946362518621855e-06,3.9908599337164924e-05,0.00013844019027737386,0.0002188348056775915,0.0003017837669850794,-14.078740787407867
3.356799518682824e-05,3.7692492007180985e-06,3.745414320785191e-05,0.0001322958390757213,0.00020708722667111954,0.00028422733945505246,-13.918739187391864
