1-Feng 1996,4-Sakakibara 1992,5-Sakakibara 1993,6-Schneider 1994,sum,gauss,x
1.4032513737117576e-47,5.975904939734225e-62,1.1388886036654809e-30,1.0245218886228019e-21,1.0245218897616904e-21,4.687065079394832e-32,-140.0
1.934915188555795e-47,9.221473400543944e-62,1.4107106491953394e-30,1.1838108416590818e-21,1.1838108430697924e-21,5.865862648009036e-32,-139.839998399984
2.666662509725993e-47,1.4219966107727153e-61,1.7467932282219708e-30,1.3675354253206928e-21,1.367535427067486e-21,7.338450371543968e-32,-139.679996799968
3.6732783632440014e-47,2.1912827033401255e-61,2.1621803282623886e-30,1.5793924524626387e-21,1.579392454624819e-21,9.177373345643752e-32,-139.519995199952
5.057306674265059e-47,3.3744256691456714e-61,2.6754028243524183e-30,1.8236300163030488e-21,1.8236300189784517e-21,1.1472921019487005e-31,-139.359993599936
6.959281488135472e-47,5.192815918384635e-61,3.309278425081832e-30,2.1051284771847186e-21,2.105128480493997e-21,1.4337425500042083e-31,-139.19999199992
9.57170224458369e-47,7.985600777165037e-61,4.091893218783244e-30,2.429493162782424e-21,2.4294931668743173e-21,1.7910590757743754e-31,-139.03999039990399
1.3158113282761128e-46,1.2271958222027745e-60,5.0578056031751265e-30,2.803160448582784e-21,2.8031604536405896e-21,2.2366097477789323e-31,-138.879988799888
1.8079138251789803e-46,1.8846111118548548e-60,6.249522439705133e-30,3.2335191186558236e-21,3.233519124905346e-21,2.7919785801414757e-31,-138.719987199872
2.4827986151945934e-46,2.8922193856352703e-60,7.719308320696213e-30,3.729049171971102e-21,3.7290491796904105e-21,3.4839789066510687e-31,-138.559985599856
3.407884968893623e-46,4.4354973489414156e-60,9.531402304817482e-30,4.299480541116532e-21,4.299480550647934e-21,4.345907895924171e-31,-138.39998399984
4.675284281608023e-46,6.797590859576608e-60,1.1764732888520425e-29,4.955974533145735e-21,4.955974544910467e-21,5.419098999857e-31,-138.239982399824
6.41077867528294e-46,1.0410445730060418e-59,1.451624197418198e-29,5.711331191944856e-21,5.711331206461098e-21,6.754842361957705e-31,-138.079980799808
8.786040639587226e-46,1.5932547933371902e-59,1.790495294194512e-29,6.580226224252966e-21,6.580226242157919e-21,8.416759497223176e-31,-137.919979199792
1.203525498093718e-45,2.436703846964462e-59,2.2076947568102614e-29,7.57948163436175e-21,7.579481656438697e-21,1.0483738586323712e-30,-137.759977599776
1.647771729989249e-45,3.7241045957106802e-59,2.7211452594039834e-29,8.728374783600986e-21,8.728374810812439e-21,1.3053561356094634e-30,-137.59997599976
2.2548541891962953e-45,5.687777479126151e-59,3.35282806125413e-29,1.0048991239045367e-20,1.0048991272573648e-20,1.6247382789352165e-30,-137.439974399744
3.084036738620217e-45,8.680903539682661e-59,4.1296923270252657e-29,1.1566627511685947e-20,1.156662755298287e-20,2.0215262097652824e-30,-137.279972799728
4.2159969344844087e-45,1.3240026964945798e-58,5.084765960604543e-29,1.3310250619217335e-20,1.3310250670064994e-20,2.5142989064739587e-30,-137.11997119971198
5.760506801899574e-45,2.0179686486710055e-58,6.258512109969764e-29,1.5313022355631044e-20,1.5313022418216166e-20,3.1260505939192286e-30,-136.959969599696
7.866848108558223e-45,3.0735590818920086e-58,7.700485065293657e-29,1.7612897223799456e-20,1.7612897300804307e-20,3.885229386201283e-30,-136.79996799968
1.0737928308235213e-44,4.678108851840625e-58,9.471350884437306e-29,2.0253304204819776e-20,2.0253304299533285e-20,4.827017721838518e-30,-136.639966399664
1.4649402074687292e-44,7.115422388903277e-58,1.1645352171970994e-28,2.3283923917914644e-20,2.3283924034368165e-20,5.9949102797493666e-30,-136.479964799648
1.997555993441715e-44,1.0815152684105683e-57,1.431331353304472e-28,2.6761574288418092e-20,2.6761574431551228e-20,7.442657749847097e-30,-136.31996319963199
2.722436059892314e-44,1.6427301574552785e-57,1.7586304953911937e-28,3.075121961269656e-20,3.075121978855961e-20,9.236660374580741e-30,-136.159961599616
3.7084811778447365e-44,2.493454289545645e-57,2.1600105490245913e-28,3.532711991491221e-20,3.5327120130913263e-20,1.1458914213455925e-29,-135.9999599996
5.049101875900628e-44,3.782145202334812e-57,2.65206400943062e-28,4.057413976166539e-20,4.0574140026871794e-20,1.4210636387352836e-29,-135.839958399584
6.870871903217969e-44,5.732929366827956e-57,3.2550599295026536e-28,4.6589238271195117e-20,4.658923859670111e-20,1.7616724079620823e-29,-135.679956799568
9.345213636886703e-44,8.683935518542923e-57,3.993749610332897e-28,5.348316496263302e-20,5.348316536200798e-20,2.1831236959900187e-29,-135.519955199552
1.2704169517097958e-43,1.314492749433009e-56,4.898346856676696e-28,6.138238938128484e-20,6.138238987111953e-20,2.704413535986501e-29,-135.359953599536
1.7261677165831683e-43,1.988389247040414e-56,6.005720179411555e-28,7.043129615738752e-20,7.043129675795954e-20,3.3489558679564704e-29,-135.19995199951998
2.344225381288589e-43,3.0057040933230426e-56,7.360842236244818e-28,8.079468136312471e-20,8.079468209920893e-20,4.1455992222875313e-29,-135.039950399504
3.1819650230792644e-43,4.540384638549943e-56,9.018551363845008e-28,9.266059078850618e-20,9.266059169036131e-20,5.129874848752598e-29,-134.879948799488
4.316891198697221e-43,6.853945938267863e-56,1.1045691610145304e-27,1.0624354613058009e-19,1.0624354723514926e-19,6.345528395490259e-29,-134.719947199472
5.853646182287376e-43,1.0339280302085991e-55,1.3523711635164051e-27,1.2178821116138465e-19,1.217882125137558e-19,7.846398839009203e-29,-134.559945599456
7.93343919846664e-43,1.5586246851684958e-55,1.6551819705987722e-27,1.3957355679633858e-19,1.3957355845152054e-19,9.698722513481157e-29,-134.39994399943998
1.0746726362011007e-42,2.3479800202865558e-55,2.0250812360289664e-27,1.5991759172593496e-19,1.599175937510162e-19,1.1983957339740277e-28,-134.239942399424
1.4550253097930024e-42,3.53466980420395e-55,2.4767718866689003e-27,1.8318273401168364e-19,1.8318273648845552e-19,1.4802243384714963e-28,-134.079940799408
1.9689947978200955e-42,5.317468288757761e-55,3.0281433227061813e-27,2.0978190890730416e-19,2.0978191193544747e-19,1.8276641507747534e-28,-133.919939199392
2.663166096984008e-42,7.993971091451944e-55,3.700954117591919e-27,2.401854692900544e-19,2.4018547299100852e-19,2.255832306335071e-28,-133.759937599376
3.600241237866921e-42,1.2009414764350187e-54,4.521659267227725e-27,2.749290476325198e-19,2.7492905215417907e-19,2.7832921633694988e-28,-133.59993599935999
4.864571763252487e-42,1.8029460062144765e-54,5.522412223488277e-27,3.146224625903492e-19,3.1462246811276145e-19,3.432830401760849e-28,-133.439934399344
6.569575240978394e-42,2.704862566436018e-54,6.742278192388529e-27,3.599598192260274e-19,3.599598259683056e-19,4.232407397492425e-28,-133.27993279932798
8.867672209405946e-42,4.055172119058968e-54,8.228702695755267e-27,4.1173095985614044e-19,4.1173096808484316e-19,5.216319065849423e-28,-133.119931199312
1.196359314676316e-41,6.075401540244323e-54,1.0039288443322093e-26,4.708344427517251e-19,4.708344527910136e-19,6.426616685691817e-28,-132.959929599296
1.6132189068205757e-41,9.095829010829634e-54,1.2243944446673963e-26,5.382922487186364e-19,5.382922609625809e-19,7.91484132611643e-28,-132.79992799928
2.17422575099996e-41,1.3608529348802572e-53,1.4927484395188e-26,6.152664412540775e-19,6.152664561815619e-19,9.744141776091976e-28,-132.639926399264
2.928839889638677e-41,2.0346124931808487e-53,1.8192767047365847e-26,7.0307803486962e-19,7.03078053062387e-19,1.1991859787199737e-27,-132.47992479924798
3.9433587616724176e-41,3.0398616990747894e-53,2.216449029576898e-26,8.032283586859327e-19,8.03228380850423e-19,1.47526845357082e-27,-132.319923199232
5.306603191470632e-41,4.538658954639065e-53,2.6993773270883104e-26,9.174232389852739e-19,9.174232659790471e-19,1.814250016528924e-27,-132.159921599216
7.137507887884511e-41,6.771780627391589e-53,3.286368811275465e-26,1.0476003655489727e-18,1.0476003984126609e-18,2.23030768980834e-27,-131.9999199992
9.595249068428681e-41,1.0096708481050935e-52,3.9995935761105785e-26,1.1959602528669676e-18,1.1959602928629034e-18,2.740778848077977e-27,-131.839918399184
1.2892750178768321e-40,1.5043828012386622e-52,4.8658899372387734e-26,1.3650012593060862e-18,1.3650013079649855e-18,3.366857784839773e-27,-131.67991679916798
1.7314683063371808e-40,2.239950949527503e-52,5.91773560532934e-26,1.5575591857574894e-18,1.5575592449348454e-18,4.134444027094792e-27,-131.519915199152
2.324144837661191e-40,3.332884493568792e-52,7.194418404217887e-26,1.7768520409342394e-18,1.7768521128784233e-18,5.075175062154918e-27,-131.35991359913598
3.118110458330195e-40,4.9556841997742056e-52,8.743447010731419e-26,2.0265306342209145e-18,2.0265307216553845e-18,6.2276830847826734e-27,-131.19991199912
4.181185796784255e-40,7.36357288255963e-52,1.0622250295413317e-25,2.3107357397678957e-18,2.3107358459903986e-18,7.639123774784238e-27,-131.039910399104
5.603857729160355e-40,1.0933901625731794e-51,1.29002235453646e-25,2.6341626684534952e-18,2.6341627974557307e-18,9.367035276626213e-27,-130.87990879908799
7.50679228818356e-40,1.6224201839061132e-51,1.5661191463521e-25,3.002134188625146e-18,3.0021343452370607e-18,1.1481597837254255e-26,-130.719907199072
1.0050816899968947e-39,2.4057645716817615e-51,1.9006371733964581e-25,3.420682853531752e-18,3.4206830435954693e-18,1.4068379403767773e-26,-130.55990559905598
1.3450176622558286e-39,3.5648767170371185e-51,2.305793956237101e-25,3.896643924578815e-18,3.896644155158211e-18,1.7231670415689986e-26,-130.39990399904
1.7990128990022508e-39,5.2788280017228904e-51,2.7963313470952013e-25,4.437760226676829e-18,4.437760506309964e-18,2.1098532680905595e-26,-130.239902399024
2.4050285212456857e-39,7.811458217480545e-51,3.390030637484051e-25,5.052800436880235e-18,5.052800775883299e-18,2.5823713361661966e-26,-130.079900799008
3.2135558244792796e-39,1.1551232424451188e-50,4.1083314337512782e-25,5.751692492341097e-18,5.7516929031742406e-18,3.1595606633030436e-26,-129.919899198992
4.291717531281192e-39,1.7069709760413064e-50,4.977074928348785e-25,6.545674010665435e-18,6.545674508372928e-18,3.8643483610857724e-26,-129.75989759897598
5.728699944989115e-39,2.5207255133528867e-50,6.02739623915521e-25,7.447461847668206e-18,7.44746245040783e-18,4.724625700046039e-26,-129.59989599896
7.642944128936267e-39,3.71985989909982e-50,7.296795315458883e-25,8.471443177195815e-18,8.471443906875346e-18,5.774310217698106e-26,-129.43989439894398
1.0191660728906738e-38,5.485664155950429e-50,8.830421666136808e-25,9.633890768341785e-18,9.633891651383951e-18,7.05463229759538e-26,-129.279892798928
1.3583412670378978e-38,8.084133074365481e-50,1.0682615029966737e-24,1.0953205460662145e-17,1.0953206528923649e-17,8.615693063072977e-26,-129.119891198912
1.809474619285806e-38,1.1905271340644167e-49,1.2918752289743369e-24,1.2450189201881637e-17,1.2450190493756866e-17,1.0518350077787273e-25,-128.95988959889598
2.4092161211253327e-38,1.752051018445168e-49,1.5617460679995567e-24,1.4148352419577243e-17,1.414835398132331e-17,1.2836498954201412e-25,-128.79988799888
3.2061119967390105e-38,2.57665222197363e-49,1.887326894800148e-24,1.6074259953385706e-17,1.60742618407126e-17,1.5659832933617822e-25,-128.63988639886398
4.2644328645106305e-38,3.786748540812251e-49,2.2799781949685144e-24,1.8257920282939103e-17,1.8257922562917297e-17,1.9097179287634734e-25,-128.479884798848
5.66922296881515e-38,5.561330880403017e-49,2.753348061097076e-24,2.0733223355169218e-17,2.073322610851728e-17,2.328053156412003e-25,-128.31988319883197
7.532956476813538e-38,8.161925175292113e-49,3.323826875293227e-24,2.3538432949625773e-17,2.3538436273452647e-17,2.836992093460214e-25,-128.15988159881599
1.0004307735775915e-37,1.197038418574838e-48,4.011091154805152e-24,2.671674022969936e-17,2.6716744240790515e-17,3.455929900024922e-25,-127.99987999879998
1.3279700801489092e-37,1.7543860899787658e-48,4.838753803423703e-24,3.0316885919492665e-17,3.031689075824647e-17,4.208363934353081e-25,-127.83987839878398
1.7618511006610663e-37,2.569471869362031e-48,5.835141297885655e-24,3.4393859430007824e-17,3.439386526514912e-17,5.1227507023527125e-25,-127.67987679876799
2.33630628767781e-37,3.7606608198327767e-48,7.03422224214075e-24,3.9009684244643933e-17,3.9009691278866175e-17,6.233539547973666e-25,-127.51987519875199
3.096492392478465e-37,5.500296097654832e-48,8.476716357145963e-24,4.4234299974368056e-17,4.4234308451084413e-17,7.582419057403702e-25,-127.35987359873599
4.101945829964621e-37,8.039139771893029e-48,1.0211418474617553e-23,5.0146552720119504e-17,5.014656293153798e-17,9.21981937230782e-25,-127.19987199871998
5.431121119613158e-37,1.1741800456463678e-47,1.2296778629157469e-23,5.683530674822617e-17,5.68353190450048e-17,1.1206722259185046e-24,-127.03987039870398
7.187348762629308e-37,1.7138050475120641e-47,1.4802787082470254e-23,6.440069200977311e-17,6.44007068125602e-17,1.3616841142175004e-24,-126.879868798688
9.506652392054443e-37,2.499710679078801e-47,1.781322228798053e-23,7.29555037342502e-17,7.295552154747248e-17,1.6539245707754973e-24,-126.71986719867199
1.2568000035917793e-36,3.643507598188847e-47,2.1428330676016685e-23,8.262677222103507e-17,8.262679364936575e-17,2.0081520527744094e-24,-126.55986559865599
1.6606740374345745e-36,5.307026051061569e-47,2.5768020017841857e-23,9.355752306064536e-17,9.355754882866538e-17,2.4373564893717242e-24,-126.39986399863999
2.1932204300819854e-36,7.724748797543677e-47,3.0975663375410056e-23,1.0590875036509794e-16,1.0590878134076131e-16,2.957216227299505e-24,-126.23986239862398
2.8950750946160177e-36,1.1236191112182153e-46,3.722262869220024e-23,1.1986162819954774e-16,1.1986166542217643e-16,3.5866473152281495e-24,-126.07986079860798
3.8195926386241906e-36,1.6332605615099984e-46,4.47136704345306e-23,1.3561998831458147e-16,1.356200330282519e-16,4.3484635325114626e-24,-125.91985919859198
5.0367909491902496e-36,2.3724301745997748e-46,5.36933449479762e-23,1.5341309551280103e-16,1.5341314920614596e-16,5.270169184911945e-24,-125.75985759857599
6.63850777273105e-36,3.443761044213382e-46,6.445364105101515e-23,1.734987555797993e-16,1.7349882003344033e-16,6.384911007284654e-24,-125.59985599855999
8.745138140595984e-36,4.9954450356258e-46,7.73430526725544e-23,1.961667947083691e-16,1.9616687205142178e-16,7.732620664510719e-24,-125.43985439854399
1.1514432653442769e-35,7.241307109902734e-46,9.277736202195619e-23,2.21742953789028e-16,2.2174304656639002e-16,9.361385485861771e-24,-125.27985279852798
1.5152980967414198e-35,1.0489658618049926e-45,1.112524509999983e-22,2.505932458780479e-16,2.505933571304989e-16,1.1329092392742766e-23,-125.11985119851198
1.9931192118669783e-35,1.518473958521478e-45,1.333595166575106e-22,2.831288306397225e-16,2.8312896399923914e-16,1.370539870886055e-23,-124.95984959849598
2.6202826238100205e-35,2.196620073609067e-45,1.5980313505994191e-22,3.198114656508696e-16,3.1981162545400465e-16,1.657409394041071e-23,-124.79984799847999
3.4430447093818917e-35,3.175441774196005e-45,1.914226987698043e-22,3.6115960121843246e-16,3.6115979264113123e-16,2.003592899610411e-23,-124.63984639846399
4.5218572858514887e-35,4.5872770000261005e-45,2.29217848485431e-22,4.077551928663023e-16,4.0775542208415077e-16,2.4212004055340608e-23,-124.47984479844798
5.935683075792592e-35,6.622277618699442e-45,2.7437863172035263e-22,4.602513139751604e-16,4.602515883537922e-16,2.9247823828867436e-23,-124.31984319843198
7.787610492089066e-35,9.553475781094555e-45,3.2832125375932418e-22,5.193806602963803e-16,5.193809886176341e-16,3.5318149812421944e-23,-124.15984159841598
1.021215510610422e-34,1.377263495605099e-44,3.9273044198651537e-22,5.859650483035157e-16,5.859654410339577e-16,4.263280392891016e-23,-123.99983999839998
1.3384749484515943e-34,1.984148953695347e-44,4.696096281515536e-22,6.609260207004035e-16,6.609264903100316e-16,5.1443607420440627e-23,-123.83983839838399
1.7534070795285861e-34,2.856492670090321e-44,5.61340369026599e-22,7.452966849885417e-16,7.452972463289107e-16,6.205267385402553e-23,-123.67983679836799
2.295804634135911e-34,4.109543308323087e-44,6.70752679840827e-22,8.402349249390034e-16,8.402355956916832e-16,7.482231666729322e-23,-123.51983519835198
3.0044623391470346e-34,5.908205807915096e-44,8.012082534446362e-22,9.470381402568543e-16,9.470389414651079e-16,9.01868810130184e-23,-123.35983359833598
3.929870728911075e-34,8.488271747536576e-44,9.566988890618809e-22,1.0671596868246988e-15,1.0671606435235879e-15,1.0866686819235885e-22,-123.19983199831998
5.137708131836469e-34,1.2186655668591546e-43,1.1419628667475183e-21,1.2022272088412851e-15,1.202228350804152e-15,1.308857903836725e-22,-123.03983039830399
6.713364948640537e-34,1.7484427313922503e-43,1.3626224878169909e-21,1.3540630751168104e-15,1.3540644377392981e-15,1.5759027566820959e-22,-122.87982879828797
8.767802298817876e-34,2.506801174545091e-43,1.6253465698646696e-21,1.5247071549608676e-15,1.5247087803074373e-15,1.8967404087488885e-22,-122.71982719827199
1.1445134591661586e-33,3.591616623938913e-43,1.9380423519241293e-21,1.7164421947292733e-15,1.7164441327716253e-15,2.2820646528508433e-22,-122.55982559825598
1.4932438122461152e-33,5.142350357255081e-43,2.310082047631947e-21,1.9318220844330756e-15,1.9318243945151234e-15,2.7446663502023747e-22,-122.39982399823998
1.947243250645132e-33,7.357579408776246e-43,2.7525702015410215e-21,2.173703335138594e-15,2.1737060877087956e-15,3.2998388982928905e-22,-122.23982239822398
2.5379867736218117e-33,1.0519857561338123e-42,3.278659078845782e-21,2.4452801224982516e-15,2.4452834011573303e-15,3.9658609553220366e-22,-122.07982079820798
3.306268851799494e-33,1.5030947814035664e-42,3.903920578398052e-21,2.750123289991896e-15,2.7501271939124745e-15,4.764570918960396e-22,-121.91981919819199
4.304935418788929e-33,2.1461717818813976e-42,4.6467846340795485e-21,3.092223747684005e-15,3.092228394468639e-15,5.722050335032321e-22,-121.75981759817599
5.6024085947966035e-33,3.0622750774660046e-42,5.529055796572654e-21,3.4760407489257358e-15,3.476046277981532e-15,6.869436576035177e-22,-121.59981599815998
7.287231768697629e-33,4.366420177587347e-42,6.576521708508144e-21,3.9065555788889006e-15,3.906562155410609e-15,8.243888867103338e-22,-121.43981439814398
9.473927327538677e-33,6.221691265528294e-42,7.819669549964794e-21,4.3893312455953246e-15,4.389339065264875e-15,9.889736150188481e-22,-121.27981279812798
1.2310542152320319e-32,8.859169153166753e-42,9.294529295505274e-21,4.9305788267397325e-15,4.930588121269028e-15,1.1859840485802688e-21,-121.11981119811198
1.5988362042881626e-32,1.2606053250687078e-41,1.1043665854809979e-20,5.537231194665424e-15,5.537242238331279e-15,1.4217215836568138e-21,-120.95980959809597
2.075441192527214e-32,1.7925318733459818e-41,1.3117345943821787e-20,6.217024917997885e-15,6.217038035343829e-15,1.7036949323339295e-21,-120.79980799807998
2.6927532226158294e-32,2.5471600935057275e-41,1.5574909941973338e-20,6.978591222349311e-15,6.9786067972592525e-15,2.0408480586916272e-21,-120.63980639806398
3.491904360300636e-32,3.6169891274924243e-41,1.8486384137893866e-20,7.83155698496372e-15,7.831575471347857e-15,2.4438304953861186e-21,-120.47980479804798
4.5259295570819277e-32,5.132627784281154e-41,2.1934374772234364e-20,8.786656840004824e-15,8.786678774379596e-15,2.9253177960515274e-21,-120.31980319803198
5.863175634813319e-32,7.278366889901174e-41,2.601629229257652e-20,9.85585758331274e-15,9.855883599605033e-15,3.500391274766319e-21,-120.15980159801597
7.591676291520761e-32,1.0314061652486624e-40,3.084696240511186e-20,1.1052496188891857e-14,1.1052527035854262e-14,4.186987826559222e-21,-119.99979999799999
9.824763909458959e-32,1.4605859151821456e-40,3.6561690030298916e-20,1.2391432885215277e-14,1.2391469446905307e-14,5.006432555453507e-21,-119.83979839798398
1.270826400381518e-31,2.0669315740954086e-40,4.331985336452995e-20,1.3889220888863404e-14,1.3889264208716769e-14,5.984069209039601e-21,-119.67979679796798
1.6429713775177809e-31,2.922985740570422e-40,5.1309118171583417e-20,1.5564294557361158e-14,1.556434586647933e-14,7.150006089764458e-21,-119.51979519795198
2.1230167990553044e-31,4.1307498892034645e-40,6.075037747094041e-20,1.7437177903758587e-14,1.7437238654136057e-14,8.539998251687511e-21,-119.35979359793598
2.7419310376060516e-31,5.833547104486142e-40,7.190353929641962e-20,1.953071561411955e-14,1.9530787517658847e-14,1.019649047763788e-20,-119.19979199791997
3.53947858026799e-31,8.232621031273088e-40,8.507430556310259e-20,2.1870328927296357e-14,2.187041400160192e-14,1.2169849859329622e-20,-119.03979039790397
4.566691910796248e-31,1.1610345544352417e-39,1.0062210876032725e-19,2.4484298976106785e-14,2.4484399598215546e-14,1.4519821881532215e-20,-118.87978879788798
5.889030474991015e-31,1.636265495647957e-39,1.189694007124659e-19,2.740408045226741e-14,2.7404199421668125e-14,1.731724986878965e-20,-118.71978719787198
7.590415575583787e-31,2.304432573892531e-39,1.4061251962834194e-19,3.066464874644763e-14,3.0664789358967256e-14,2.0646104638569512e-20,-118.55978559785598
9.778381351453343e-31,3.243215780938927e-39,1.661343988009353e-19,3.43048840319932e-14,3.4305050166392003e-14,2.4605879392223718e-20,-118.39978399783998
1.2590647080078064e-30,4.561306853756627e-39,1.9621942343730808e-19,3.8367996108843676e-14,3.836819232826711e-14,2.931441446764119e-20,-118.23978239782397
1.6203498555297993e-30,6.410683568709003e-39,2.3167079213617784e-19,4.290199420589228e-14,4.290222587668442e-14,3.491122781143326e-20,-118.07978079780798
2.0842470844983568e-30,9.003699618942928e-39,2.734307975748784e-19,4.7960206358522936e-14,4.7960479789320515e-14,4.156144017953297e-20,-117.91977919779198
2.6795957139653626e-30,1.2636862518523272e-38,3.22604508272011e-19,5.360185343685792e-14,5.360217604136619e-14,4.9460399463825337e-20,-117.75977759777598
3.443253599250454e-30,1.772389341307609e-38,3.8048741130372602e-19,5.989268340298035e-14,5.989306389039167e-14,5.883912654243346e-20,-117.59977599775998
4.422302125666812e-30,2.4841659494316385e-38,4.485976662366999e-19,6.690567192611224e-14,6.690612052377848e-14,6.997072609686914e-20,-117.43977439774397
5.6768507072022816e-30,3.479394603434659e-38,5.287137252202884e-19,7.472179608793027e-14,7.47223248016555e-14,8.317793043557452e-20,-117.27977279772797
7.283601896996289e-30,4.869993398009946e-38,6.229181953654471e-19,8.343088857049691e-14,8.343151148869228e-14,9.884197309787146e-20,-117.11977119771197
9.34038099485375e-30,6.811686712136493e-38,7.336489597759669e-19,9.313258044209714e-14,9.313331409105693e-14,1.174130225670404e-19,-116.95976959769598
1.1971888034752765e-29,9.520999980451316e-38,8.637587358168059e-19,1.0393734144700407e-13,1.039382052057399e-13,1.3942244558905607e-19,-116.79976799767998
1.5336998157564504e-29,1.3298788192433226e-37,1.0165844367762113e-18,1.1596762757025285e-13,1.1596864415468964e-13,1.6549721529402897e-19,-116.63976639766398
1.9638022268622293e-29,1.8562786941736541e-37,1.1960279198771031e-18,1.2935914659436247e-13,1.2936034262228238e-13,1.963768326186392e-19,-116.47976479764797
2.5132448123580517e-29,2.5892613987961436e-37,1.4066499540704407e-18,1.4426225339886135e-13,1.4426366004881545e-13,2.3293319166810005e-19,-116.31976319763197
3.2147818319840754e-29,3.6091939413054178e-37,1.6537795303167814e-18,1.6084348788351279e-13,1.6084514166304315e-13,2.761938920709205e-19,-116.15976159761598
4.110057329007265e-29,5.027431343918084e-37,1.9436409710023234e-18,1.7928726963048646e-13,1.792892132714575e-13,3.273695857338077e-19,-115.99975999759997
5.251990331327862e-29,6.998157029244743e-37,2.283501680485921e-18,1.9979776476892268e-13,1.9980004827060323e-13,3.8788604362389527e-19,-115.83975839758398
6.707792506348242e-29,9.734705645343468e-37,2.6818438232690963e-18,2.2260094197734833e-13,2.2260362382117168e-13,4.594217425246772e-19,-115.67975679756798
8.562783942906564e-29,1.3532049281820866e-36,3.148563728785464e-18,2.4794683616581594e-13,2.479499847295448e-13,5.439519047121518e-19,-115.51975519755197
1.0925215591968286e-28,1.879775234035149e-36,3.695203412498211e-18,2.761120401328118e-13,2.761157353362244e-13,6.438000781695774e-19,-115.35975359753597
1.3932360700889197e-28,2.609455422687873e-36,4.335219283508624e-18,3.0740244640383914e-13,3.074067816231228e-13,7.616985247577566e-19,-115.19975199751997
1.7758205081869374e-28,3.619890611482926e-36,5.084293892572147e-18,3.4215626354389546e-13,3.421613478377882e-13,9.008588926780547e-19,-115.03975039750398
2.262315070694906e-28,5.018138199145066e-36,5.9606974765572016e-18,3.80747333508718e-13,3.8075329420619475e-13,1.0650548922255712e-18,-114.87974879748798
2.880625321625179e-28,6.951705959951915e-36,6.985707093444549e-18,4.235887790767477e-13,4.2359576478384144e-13,1.2587189755575262e-18,-114.71974719747197
3.666064682157944e-28,9.623693365978531e-36,8.184092335957124e-18,4.711370131022356e-13,4.711451971945719e-13,1.4870553481550954e-18,-114.55974559745597
4.663297646267582e-28,1.3313546685108094e-35,9.58467798467368e-18,5.238961442684327e-13,5.239057289464179e-13,1.756172018934912e-18,-114.39974399743997
5.928786524861149e-28,1.840548899058024e-35,1.1220995539153894e-17,5.824228172197725e-13,5.824340382153122e-13,2.0732350357584413e-18,-114.23974239742398
7.533870554994028e-28,2.5427435463049367e-35,1.3132037378033331e-17,6.473315284338942e-13,6.47344660471273e-13,2.446648562841858e-18,-114.07974079740796
9.568638748792894e-28,3.5104223203587545e-35,1.5363129380290704e-17,7.193004629836129e-13,7.193158261129942e-13,2.8862650471588225e-18,-113.91973919739198
1.21467985023937e-27,4.843036920167988e-35,1.7966940228890693e-17,7.990779014603323e-13,7.990958684005624e-13,3.403630404898829e-18,-113.75973759737597
1.5411792730732057e-27,6.676944992951667e-35,2.1004648359069536e-17,8.874892508111593e-13,8.875102554595199e-13,4.012269950814924e-18,-113.59973599735997
1.9544481614197687e-27,9.198974667783491e-35,2.4547290657344163e-17,9.854447577141374e-13,9.854693050047966e-13,4.728021709484623e-18,-113.43973439734397
2.4772784010320233e-27,1.2664925906873887e-34,2.867732062150724e-17,1.093947968408372e-12,1.093976645728996e-12,5.5694248072203505e-18,-113.27973279732797
3.1383772010115147e-27,1.7424787476676392e-34,3.3490407822179327e-17,1.214105004647253e-12,1.2141384950550784e-12,6.558171868560583e-18,-113.11973119731198
3.973883473185201e-27,2.3957082715763493e-34,3.9097515237785086e-17,1.3471347316867266e-12,1.3471738292019682e-12,7.719635757219613e-18,-112.95972959729598
5.029268010417039e-27,3.2915615521051026e-34,4.562729645228556e-17,1.4943799010005445e-12,1.4944255282970017e-12,9.083482637055502e-18,-112.79972799727997
6.361713335326391e-27,4.519304824484584e-34,5.322886090563834e-17,1.6573193577721758e-12,1.6573725866330878e-12,1.0684385217361915e-17,-112.63972639726397
8.043092716018934e-27,6.200731063437506e-34,6.207496248104542e-17,1.8375814111942545e-12,1.8376434861567437e-12,1.2562852226826411e-17,-112.47972479724797
1.0163697211123817e-26,8.501895489283573e-34,7.236567482592711e-17,2.0369584742658325e-12,2.0370308399406686e-12,1.4766192675678096e-17,-112.31972319723197
1.2836896087321918e-26,1.164904262560944e-33,8.43326260778371e-17,2.2574230891621545e-12,2.257507421788245e-12,1.7349636366209058e-17,-112.15972159721596
1.620496124762341e-26,1.5950206600545843e-33,9.824387626391632e-17,2.5011454644278287e-12,2.501243708304109e-12,2.0377635455604682e-17,-111.99971999719997
2.0446342516309882e-26,2.182448463926976e-33,1.1440953274684415e-16,2.7705126612661256e-12,2.770627070798893e-12,2.3925375727997534e-17,-111.83971839718397
2.5784750337249068e-26,2.9841681266982297e-33,1.3318821291012405e-16,3.0681495781387176e-12,3.0682827663516533e-12,2.808053067044542e-17,-111.67971679716797
3.25004888522205e-26,4.0775958986323596e-33,1.5499447904754496e-16,3.3969418958197702e-12,3.3970968902988504e-12,3.29452965568269e-17,-111.51971519715197
4.0944589375839485e-26,5.5678392224129495e-33,1.8030738841392062e-16,3.760061159042395e-12,3.76024146643085e-12,3.863875262350965e-17,-111.35971359713596
5.15564268303529e-26,7.597501496861273e-33,2.0968032191110666e-16,4.160992186022697e-12,4.16120186634466e-12,4.5299597184398565e-17,-111.19971199711998
6.488566572844038e-26,1.0359922547681952e-32,2.4375227826884795e-16,4.60356301352659e-12,4.603806765804923e-12,5.308931831032236e-17,-111.03971039710397
8.161958515852138e-26,1.411704596606875e-32,2.832608472247076e-16,5.091977602862746e-12,5.092260863710052e-12,6.219586663655062e-17,-110.87970879708797
1.0261708299318455e-25,1.9223512969775844e-32,3.2905710555241163e-16,5.6308515513374336e-12,5.631180608443089e-12,7.283790813187525e-17,-110.71970719707197
1.2895096934486683e-25,2.615912946372919e-32,3.8212271433293955e-16,6.225251074401198e-12,6.22563319711566e-12,8.526974645611888e-17,-110.55970559705597
1.6196054182052366e-25,3.5572584969687064e-32,4.4358953517271987e-16,6.880735546081096e-12,6.8811791356164305e-12,9.97870180704293e-17,-110.39970399703996
2.0331690718694795e-25,4.8340280884774336e-32,5.147621277864631e-16,7.603403909435291e-12,7.60391867156328e-12,1.167332787978464e-16,-110.23970239702396
2.55104096282865e-25,6.564543336741335e-32,5.971435422003282e-16,8.39994529484059e-12,8.400542438383046e-12,1.3650761834658455e-16,-110.07970079700797
3.199197367113181e-25,8.908436237403453e-32,6.924648766088255e-16,9.277694212055049e-12,9.278386676931977e-12,1.5957345973219202e-16,-109.91969919699197
4.0099993204675704e-25,1.2080920821678279e-31,8.027191375556731e-16,1.0244690712353972e-11,1.0245493431491929e-11,1.8646872393877077e-16,-109.75969759697597
5.0237408501625045e-25,1.6371942325815193e-31,9.302000136430184e-16,1.1309745949778414e-11,1.1310676149792559e-11,2.1781756696763564e-16,-109.59969599695997
6.290567419243044e-25,2.217185246901748e-31,1.0775462585747447e-15,1.2482513605822867e-11,1.248359115208207e-11,2.543439271159734e-16,-109.43969439694396
7.872851834741592e-25,3.0005810363695255e-31,1.247792475327908e-15,1.377356767994332e-11,1.3774815472419435e-11,2.9688715545617533e-16,-109.27969279692797
9.848135127990633e-25,4.057984148587883e-31,1.444427202108273e-15,1.519448718924147e-11,1.519593161644456e-11,3.4642004267267806e-16,-109.11969119691197
1.2312764801730001e-24,5.484246140300707e-31,1.6714593241556185e-15,1.675794836483317e-11,1.6759619824158555e-11,4.040696013646944e-16,-108.95968959689597
1.5386393396383881e-24,7.40670651275671e-31,1.9334939753075925e-15,1.847782497994098e-11,1.8479758473917826e-11,4.711410154459528e-16,-108.79968799687997
1.921753782800046e-24,9.996200081377733e-31,2.2358192516277394e-15,2.036929749589884e-11,2.037153331515239e-11,5.4914522827964e-16,-108.63968639686397
2.399044594452016e-24,1.3481752506402071e-30,2.5845052387406533e-15,2.244897176731621e-11,2.2451556272557347e-11,6.398307097148282e-16,-108.47968479684796
2.9933573127554246e-24,1.8170185714934533e-30,2.986517057476426e-15,2.4735008106830716e-11,2.4737994623891185e-11,7.452200204176073e-16,-108.31968319683196
3.733004084060062e-24,2.4472254932244038e-30,3.4498438620215974e-15,2.7247261573558973e-11,2.7250711417424728e-11,8.676518811472433e-16,-108.15968159681597
4.653053360173801e-24,3.293746841149202e-30,3.983645984391213e-15,3.000743441774873e-11,3.0011418063737775e-11,1.00982955643023e-15,-107.99967999679997
5.796919436110882e-24,4.4300441041874654e-30,4.5984227124741595e-15,3.3039241687668374e-11,3.304384011038664e-11,1.1748764781412655e-15,-107.83967839678397
7.218320485460162e-24,5.9542558199286556e-30,5.30620352043063e-15,3.6368591083719764e-11,3.637389728724741e-11,1.3664001667532888e-15,-107.67967679676796
8.983689224862718e-24,7.997394795172261e-30,6.120765944615767e-15,4.002377822953857e-11,4.002989899549217e-11,1.588565658660802e-15,-107.51967519675196
1.1175139244169548e-23,1.0734237191581944e-29,7.057883720832277e-15,4.403569862085052e-11,4.4042756504582524e-11,1.8461798194935615e-15,-107.35967359673597
1.3894113122249993e-23,1.4397777088440833e-29,8.135609275588746e-15,4.843807761047634e-11,4.844621321976582e-11,2.144788118533147e-15,-107.19967199671996
1.7265866617825578e-23,1.9298400238251178e-29,9.374595201883927e-15,5.326771989260032e-11,5.327709448781947e-11,2.4907856613875763e-15,-107.03967039670397
2.144497758136914e-23,2.584929953012295e-29,1.0798459956400278e-14,5.85647800617102e-11,5.857557852168805e-11,2.891544530562658e-15,-106.87966879668797
2.6622110113421196e-23,3.4600139897321016e-29,1.2434203698283787e-14,6.437305594193299e-11,6.43854901456579e-11,3.355559770529587e-15,-106.71966719667196
3.303231551514837e-23,4.6281618329392296e-29,1.4312680959370664e-14,7.07403065114535e-11,7.075461919244591e-11,3.892616679902071e-15,-106.55966559665598
4.0965213698699394e-23,6.186440271251938e-29,1.6469137702316782e-14,7.771859638478941e-11,7.773506552253269e-11,4.513982443550985e-15,-106.39966399663996
5.077747432089427e-23,8.263703340036527e-29,1.8943821298385592e-14,8.536466896354264e-11,8.53836127848918e-11,5.232625557704786e-15,-106.23966239662397
6.290810884462966e-23,1.1030881462350685e-28,2.1782673053832198e-14,9.374035052452117e-11,9.376213319763791e-11,6.063466977870043e-15,-106.07966079660797
7.789719648888708e-23,1.471456146300151e-28,2.5038114147530307e-14,1.029129876833859e-10,1.0293802579761132e-10,7.023667460112115e-15,-105.91965919659197
9.640880279476205e-23,1.9614897140455366e-28,2.8769937229194296e-14,1.129559208530775e-10,1.129846907904031e-10,8.132956179185957e-15,-105.75965759657596
1.1925901437617843e-22,2.6129214415918185e-28,3.304631748545736e-14,1.23948996509852e-10,1.239820428274567e-10,9.41400640153167e-15,-105.59965599655996
1.4745021345386908e-22,3.4783099279288877e-28,3.7944958730632416e-14,1.3597912128660793e-10,1.3601706624548602e-10,1.0892864777758037e-14,-105.43965439654397
1.8221295836333377e-22,4.627131115636505e-28,4.355439204286913e-14,1.491408611342367e-10,1.4918441552646178e-10,1.259944170976772e-14,-105.27965279652796
2.250571302724461e-22,6.15115883578443e-28,4.9975446669949267e-14,1.6353708902769507e-10,1.6358706447459008e-10,1.4568071255371505e-14,-105.11965119651197
2.778343625528255e-22,8.171535713924334e-28,5.732291540032785e-14,1.7927968494553736e-10,1.7933700786121554e-10,1.683815017306925e-14,-104.95964959649596
3.428142005178016e-22,1.0848058804031855e-27,6.572743936544653e-14,1.964902921203905e-10,1.9655601956009875e-10,1.9454866998317832e-14,-104.79964799647996
4.2277696109084593e-22,1.4391364872954358e-27,7.533764034385513e-14,2.1530113384478025e-10,2.1537647148554687e-10,2.2470033498931625e-14,-104.63964639646396
5.211268930664325e-22,1.907890931685462e-27,8.632253211480185e-14,2.358558954224566e-10,2.3594221795509256e-10,2.5943032502278884e-14,-104.47964479644796
6.420300014103885e-22,2.527590470353981e-27,9.887424630189175e-14,2.583106761813765e-10,2.584095504283204e-10,2.994189794432117e-14,-104.31964319643197
7.905818204697318e-22,3.3462738594345825e-27,1.1321111250387703e-13,2.828350168118376e-10,2.8294822792513206e-10,3.454454508676101e-14,-104.15964159641595
9.730115333849648e-22,4.4270849771410186e-27,1.2958113738265131e-13,3.0961300766314616e-10,3.0974258880150185e-10,3.984017121324473e-14,-103.99963999639996
1.1969301772467962e-21,5.852963849486932e-27,1.4826593282707881e-13,3.3884448402620624e-10,3.389927499602303e-10,4.593084978197228e-14,-103.83963839638396
1.4716322921723977e-21,7.732776022756854e-27,1.6958514940031692e-13,3.7074631484838566e-10,3.7091589999925764e-10,5.293334401723059e-14,-103.67963679636796
1.80846232329695e-21,1.0209315535281478e-26,1.9390147808059115e-13,4.055537917731942e-10,4.0574769325308325e-10,6.098116930797269e-14,-103.51963519635197
2.2212594345084217e-21,1.3469746673643345e-26,2.216262909005622e-13,4.435221258714372e-10,4.43743752164559e-10,7.022693759389455e-14,-103.35963359633595
2.7268972216029938e-21,1.775921787791228e-26,2.5322599956751135e-13,4.849280599345857e-10,4.851812859368801e-10,8.084502121048482e-14,-103.19963199631997
3.3459382161027153e-21,2.3398598682858215e-26,2.89229220603733e-13,5.300716047370433e-10,5.30360833960993e-10,9.30345784921745e-14,-103.03963039630396
4.103427163672434e-21,3.0807571714075654e-26,3.3023484609191337e-13,5.792779082426922e-10,5.796081430928876e-10,1.0702298886150805e-13,-102.87962879628796
5.029851979629008e-21,4.053467482954243e-26,3.769211308646816e-13,6.32899267335489e-10,6.332761884713836e-10,1.2306975123455897e-13,-102.71962719627196
6.1623071916920244e-21,5.329635704025473e-26,4.3005592007268594e-13,6.913172922950427e-10,6.917473482212778e-10,1.414709064287747e-13,-102.55962559625596
7.545901771755496e-21,7.002771604534484e-26,4.905081556487393e-13,7.549452349182813e-10,7.554357430814761e-10,1.6256405195887659e-13,-102.39962399623997
9.235461766428759e-21,9.19483637724316e-26,5.5926081641792e-13,8.242304919098653e-10,8.247897527355188e-10,1.8673402624914322e-13,-102.23962239622395
1.1297588337442959e-20,1.2064786878482958e-25,6.374254646636111e-13,8.996572959285162e-10,9.002947214044774e-10,2.144193489873578e-13,-102.07962079620796
1.381314404776481e-20,1.5819651423632486e-25,7.262585920444733e-13,9.817496074871127e-10,9.824758660929705e-10,2.461195152210129e-13,-101.91961919619196
1.6880254870277498e-20,2.072887683431589e-25,8.271799800827747e-13,1.0710742217621001e-09,1.0719014017590633e-09,2.8240325298683317e-13,-101.75961759617596
2.0617932920740693e-20,2.7142899476711526e-25,9.417933152510586e-13,1.168244105276903e-09,1.1691858986127721e-09,3.2391786792423386e-13,-101.59961599615997
2.5170445881323197e-20,3.5517166523238353e-25,1.0719093262332157e-12,1.2739219783854717e-09,1.2749938877368757e-09,3.7139981362088265e-13,-101.43961439614395
3.0712584146025054e-20,4.644318450252025e-25,1.2195717415173456e-12,1.3888241604990198e-09,1.3900437322712502e-09,4.2568664356331684e-13,-101.27961279612796
3.7456006669532826e-20,6.068862190762188e-25,1.3870863994111563e-12,1.5137246960752473e-09,1.515111782512115e-09,4.877305197271662e-13,-101.11961119611196
4.565688226783746e-20,7.924906864134712e-25,1.5770538802026355e-12,1.6494597805253445e-09,1.651036834451205e-09,5.586134742713599e-13,-100.95960959609596
5.562508580744773e-20,1.034147923091853e-24,1.7924060719079825e-12,1.7969325063959453e-09,1.7987249125234794e-09,6.395646447576915e-13,-100.79960799607996
6.773525964005415e-20,1.3485677424114798e-24,2.0364471272736964e-12,1.9571179514508013e-09,1.9591543986458114e-09,7.31979730085489e-13,-100.63960639606395
8.244011134340636e-20,1.7573751308574587e-24,2.31289932089591e-12,2.131068631616079e-09,2.133381531019417e-09,8.374429442278052e-13,-100.47960479604797
1.002863911547787e-19,2.288536225672106e-24,2.625954371995494e-12,2.319920343165927e-09,2.3225462976382112e-09,9.577517782306335e-13,-100.31960319603195
1.219340786057909e-19,2.9781921351219547e-24,2.9803308610971677e-12,2.524898420013658e-09,2.527878750996692e-09,1.0949449181766206e-12,-100.15960159601596
1.481794103590041e-19,3.873015539025622e-24,3.3813384382210564e-12,2.7473244335459066e-09,2.750705772132311e-09,1.2513337083497342e-12,-99.99959999599996
1.7998250314775204e-19,5.0332369067073374e-24,3.834949596865432e-12,2.9886233640897204e-09,2.9924583138665734e-09,1.4295375951380367e-12,-99.83959839598396
2.1850047062309793e-19,6.53652778292717e-24,4.347879872782969e-12,3.2503312748470616e-09,3.2546791549383517e-09,1.6325240388046937e-12,-99.67959679596797
2.651271050548601e-19,8.482980260717519e-24,4.927677420120819e-12,3.534103520964416e-09,3.5390311986496726e-09,1.8636534377168736e-12,-99.51959519595195
3.2154039921970117e-19,1.1001487442966971e-23,5.582823020787199e-12,3.841723528335699e-09,3.847306351678037e-09,2.1267296735873754e-12,-99.35959359593596
3.897594263363322e-19,1.4257913130210172e-23,6.322841696884449e-12,4.175112178767984e-09,4.181435020854642e-09,2.4260569574585156e-12,-99.19959199591996
4.722123835247607e-19,1.8465544878381366e-23,7.158427221744e-12,4.536337840271151e-09,4.543496267965126e-09,2.7665037353132545e-12,-99.03959039590396
5.718179451582352e-19,2.3898458897329543e-23,8.101580963671122e-12,4.927627083478248e-09,4.9357286650137614e-09,3.153574500194261e-12,-98.87958879588795
6.920824762740204e-19,3.09085955064675e-23,9.165766649181315e-12,5.351376127555439e-09,5.3605418948967336e-09,3.593490455481952e-12,-98.71958719587195
8.372161342409407e-19,3.9947559469062684e-23,1.0366082800659925e-11,5.810163061434328e-09,5.820529145072244e-09,4.09328008256689e-12,-98.55958559585596
1.0122714524640585e-18,5.159443236966072e-23,1.1719454788470432e-11,6.3067608887929175e-09,6.318480344593711e-09,4.660880786686158e-12,-98.39958399583995
1.223308668681426e-18,6.659122921320192e-23,1.3244848641187762e-11,6.844151447930074e-09,6.857396297794638e-09,5.305252928428218e-12,-98.23958239582396
1.4775928507400675e-18,8.588806736866843e-23,1.4963508981601108e-11,7.4255402605325475e-09,7.440503770991827e-09,6.03650769672675e-12,-98.07958079580796
1.7838288061701836e-18,1.1070066640093754e-22,1.6899223702304902e-11,8.054372366315601e-09,8.071271591801845e-09,6.866050443559794e-12,-97.91957919579195
2.1524408636762793e-18,1.4258349176472105e-22,1.9078618265179067e-11,8.734349203651056e-09,8.753427824068818e-09,7.806741282718293e-12,-97.75957759577597
2.595905914427505e-18,1.8352273078498788e-22,2.1531482806072748e-11,9.469446599565213e-09,9.490978084967375e-09,8.873074956713411e-12,-97.59957599575995
3.1291496334277554e-18,2.360543921663057e-22,2.429113555201593e-11,1.0263933935914164e-08,1.0288225074595566e-08,1.0081382199151732e-11,-97.43957439574396
3.770017606851213e-18,3.034142084516688e-22,2.7394826415949625e-11,1.1122394562124983e-08,1.1149789392311253e-08,1.1450055066913714e-11,-97.27957279572796
4.539835217485386e-18,3.897277668947507e-22,3.0884185026133744e-11,1.2049747528626528e-08,1.2080631718192887e-08,1.2999798989594482e-11,-97.11957119571196
5.464072642809756e-18,5.00251488699951e-22,3.480571787724806e-11,1.305127071900365e-08,1.308607644234547e-08,1.4753914585553732e-11,-96.95956959569595
6.5731342635275015e-18,6.41677832591815e-22,3.921135976105002e-11,1.4132625462981318e-08,1.4171836829316143e-08,1.6738612627405992e-11,-96.79956799567995
7.903295240214125e-18,8.225215572347255e-22,4.4159085150029607e-11,1.529988271659954e-08,1.534404180965369e-08,1.898336590801733e-11,-96.63956639566396
9.4978120803771e-18,1.0536082139079868e-21,4.971358577171437e-11,1.655955090037152e-08,1.66092644956421e-08,2.1521302164464937e-11,-96.47956479564795
1.1408238790523456e-17,1.3486914749455161e-21,5.594702122843124e-11,1.7918605490835347e-08,1.7974552523473366e-08,2.438964266569842e-11,-96.31956319563196
1.369598580769508e-17,1.725232707155597e-21,6.293985019209833e-11,1.9384520465725158e-08,1.9447460329614967e-08,2.763019156390631e-11,-96.15956159561595
1.6434165471916677e-17,2.2053847114025337e-21,7.078175044088246e-11,2.0965301707983793e-08,2.1036083474861047e-08,3.128988165424122e-11,-95.99955999559995
1.9709775497597606e-17,2.817232190507313e-21,7.9572636809886e-11,2.2669522479056017e-08,2.2749095135578497e-08,3.542138278749807e-11,-95.83955839558396
2.3626280916998447e-17,3.596354799895848e-21,8.94237870070843e-11,2.450636107730653e-08,2.4595784887943492e-08,4.0083779840787e-11,-95.67955679556795
2.8306665522028027e-17,4.5877952268374935e-21,1.0045908620486724e-10,2.64856408030298e-08,2.658609991754592e-08,4.534332787796972e-11,-95.51955519555196
3.3897036176868826e-17,5.84853543760506e-21,1.1281640236357974e-10,2.861787235736242e-08,2.8730688793628884e-08,5.1274292930920775e-11,-95.35955359553596
4.057087780924267e-17,7.450610021779979e-21,1.2664910538347374e-10,3.0914298808452175e-08,3.104094795441398e-08,5.795988771121168e-11,-95.19955199551995
4.85340737559252e-17,9.485017679646251e-21,1.4212774442358316e-10,3.3386943264528255e-08,3.35290710574954e-08,6.549331252716776e-11,-95.03955039550395
5.803082583642457e-17,1.206663186342682e-20,1.5944189907840417e-10,3.604865940001635e-08,3.620810135713765e-08,7.397891274123282e-11,-94.87954879548795
6.935063151869653e-17,1.5340361275463645e-20,1.7880222157506168e-10,3.891318498757818e-08,3.909198727851921e-08,8.353346526606225e-11,-94.71954719547196
8.283650235631752e-17,1.9488872666324605e-20,2.0044268875459715e-10,4.199519859592824e-08,4.219564136753883e-08,9.428760787410477e-11,-94.55954559545594
9.889463913528316e-17,2.4742265024824136e-20,2.2462308434137986e-10,4.531037962047835e-08,4.5535002803739106e-08,1.0638742649486421e-10,-94.39954399543996
1.1800581558501267e-16,3.139017933682222e-20,2.5163173389596215e-10,4.887547182132211e-08,4.912710367325528e-08,1.1999621720775337e-10,-94.23954239542395
1.4073876490716214e-16,3.979694595333666e-20,2.817885169003146e-10,5.2708350550735783e-08,5.299013920841466e-08,1.3529644131821997e-10,-94.07954079540795
1.677659127109602e-16,5.0420517594872653e-20,3.154481826539074e-10,5.68280938603247e-08,5.714354221079494e-08,1.524918937439761e-10,-93.91953919539195
1.998818573143761e-16,6.383611669784507e-20,3.5300399907748476e-10,6.125505768610343e-08,6.160806188512661e-08,1.7181010695038704e-10,-93.75953759537595
2.3802506504511357e-16,8.076574925161895e-20,3.948917661437747e-10,6.601095531822988e-08,6.640584732247949e-08,1.9350501487480165e-10,-93.59953599535996
2.833033256158237e-16,1.0211501338777318e-19,4.415942284962878e-10,7.111894137077246e-08,7.156053588267418e-08,2.178599036850802e-10,-93.43953439534394
3.370236025375179e-16,1.2901897191720964e-19,4.936459248953365e-10,7.660370047580032e-08,7.709734673784829e-08,2.451906788454857e-10,-93.27953279532795
4.0072701781205474e-16,1.628992786557235e-19,5.516385154627854e-10,8.249154093526217e-08,8.304317985161488e-08,2.758494808326785e-10,-93.11953119531195
4.762298310366791e-16,2.0553526696682407e-19,6.162266313018659e-10,8.881049357348567e-08,8.94267206812229e-08,3.1022868497590827e-10,-92.95952959529595
5.656714131239832e-16,2.5915234778927386e-19,6.881342949672355e-10,9.559041604280363e-08,9.627855090370143e-08,3.487653243114029e-10,-92.79952799527996
6.715703770310929e-16,3.2653185077522936e-19,7.6816196447355e-10,1.0286310284467498e-07,1.0363126548104543e-07,3.9194597806449917e-10,-92.63952639526394
7.968902155807937e-16,4.1114740935254915e-19,8.571942580817869e-10,1.1066240133876997e-07,1.1151959639415312e-07,4.403121724303432e-10,-92.47952479524795
9.451160135207667e-16,5.173341791953314e-19,9.562084220160267e-10,1.1902433402286817e-07,1.1998054339051756e-07,4.94466344742509e-10,-92.31952319523195
1.1203440518456232e-15,6.504986393146325e-19,1.0662836085637122e-09,1.2798722737692524e-07,1.290535121064835e-07,5.550784269274665e-10,-92.15952159521595
1.3273864121923373e-15,8.17378516174979e-19,1.188611037729398e-09,1.3759184757549378e-07,1.3878045994142696e-07,6.228931093744942e-10,-91.99951999519995
1.5718930236366123e-15,1.0263645674434275e-18,1.3245051217720237e-09,1.478815433836497e-07,1.492060500783411e-07,6.987378520378232e-10,-91.83951839518394
1.860493980134728e-15,1.2878986526514354e-18,1.475415638591747e-09,1.5890239656275544e-07,1.6037781406312907e-07,7.835317157681806e-10,-91.67951679516796
2.2009654017919287e-15,1.6149658119347697e-18,1.6429410470754943e-09,1.7070338012378962e-07,1.7234632337344548e-07,8.782950935826806e-10,-91.51951519515194
2.6024226258026243e-15,2.0237021031732435e-18,1.8288430451953806e-09,1.8333652477749405e-07,1.8516537042713576e-07,9.841604288671022e-10,-91.35951359513595
3.075545103244756e-15,2.5341448725323696e-18,2.0350624799185782e-09,1.968570939423588e-07,1.9889215950035663e-07,1.102384015408104e-09,-91.19951199511995
3.632838057257496e-15,3.1711581479023654e-18,2.2637367268658226e-09,2.1132376768326958e-07,2.1358750804614462e-07,1.2343589827209201e-09,-91.03951039510395
4.288936739431622e-15,3.965573184422258e-18,2.517218667194531e-09,2.2679883596569935e-07,2.293160589257962e-07,1.381629579423838e-09,-90.87950879508796
5.0609600192239085e-15,4.955593141069534e-18,2.79809739941783e-09,2.4334840162244935e-07,2.461465040877828e-07,1.5459068774658696e-09,-90.71950719507194
5.968921072655843e-15,6.188521771771391e-18,3.1092208348517935e-09,2.6104259344209153e-07,2.641518202520529e-07,1.7290860308977256e-09,-90.55950559505595
7.036204120568283e-15,7.722889290049488e-18,3.4537203371561396e-09,2.799557898007158e-07,2.8340951718179896e-07,1.9332652346508544e-09,-90.39950399503995
8.290117524976044e-15,9.631064715594178e-18,3.835037579044323e-09,3.0016685327077016e-07,3.0400189914956307e-07,2.160766541516552e-09,-90.23950239502395
9.762535109287749e-15,1.200246364091959e-17,4.2569538027454445e-09,3.21759376653317e-07,3.260163402306e-07,2.4141587092725163e-09,-90.07950079500795
1.1490639352314147e-14,1.4947484197464506e-17,4.723621685250388e-09,3.448219408923753e-07,3.495455740832125e-07,2.696282264755012e-09,-89.91949919499194
1.351778214888108e-14,1.8602332933692376e-17,5.2396000248293365e-09,3.6944838534238303e-07,3.746879989035969e-07,3.0102769877046798e-09,-89.75949759497595
1.5894481167523193e-14,2.3134937402496633e-17,5.809891481824548e-09,3.957380908722333e-07,4.01547998271674e-07,3.3596120345030582e-09,-89.59949599495994
1.8679572508985082e-14,2.875218476548543e-17,6.439983624361873e-09,4.237962763014592e-07,4.3023627863414574e-07,3.748118940552995e-09,-89.43949439494395
2.194154342435611e-14,3.570877718800149e-17,7.135893548456713e-09,4.537343086764914e-07,4.6087022420220036e-07,4.1800277601363215e-09,-89.27949279492795
2.576007234087866e-14,4.431805705799242e-17,7.90421636207076e-09,4.856700279066923e-07,4.935742700731534e-07,4.66000662419652e-09,-89.11949119491194
3.0227807426009796e-14,5.496523031729717e-17,8.752177844090955e-09,5.197280862918487e-07,5.284802944187123e-07,5.193205019758207e-09,-88.95948959489596
3.54524194629426e-14,6.812350708541906e-17,9.68769161200839e-09,5.560403034843625e-07,5.657280306169139e-07,5.785301119707276e-09,-88.79948799487994
4.1558969988988497e-14,8.437378844412313e-17,1.0719421156354588e-08,5.947460374405961e-07,6.054655002402944e-07,6.442553518537321e-09,-88.63948639486395
4.8692641547142756e-14,1.0442866051719292e-16,1.185684712579069e-08,6.359925719270876e-07,6.478494678499485e-07,7.171857758544234e-09,-88.47948479484795
5.70218836166664e-14,1.2916161634211494e-16,1.3110340274200196e-08,6.799355211576587e-07,6.930459185829041e-07,7.980808061936768e-09,-88.31948319483195
6.674203542888105e-14,1.5964261788609484e-16,1.4491240510321103e-08,7.267392521480962e-07,7.412305595600953e-07,8.877764717579682e-09,-88.15948159481594
7.807949556116927e-14,1.9718134134606591e-16,1.6011942521425607e-08,7.765773253845215e-07,7.92589346182624e-07,9.871927606720264e-09,-87.99947999479994
9.12965180724063e-14,2.4337972626726237e-16,1.768598847542035e-08,8.296329544110792e-07,8.473190344263974e-07,1.0973416390230354e-08,-87.83947839478395
1.0669672615060674e-13,3.001957821600798e-16,1.952816834058438e-08,8.860994849512433e-07,9.056277602887496e-07,1.21933579207723e-08,-87.67947679476794
1.246314469612846e-13,3.700210060705243e-16,2.155462839906766e-08,9.461808941849943e-07,9.677356475855298e-07,1.3543981487029889e-08,-87.51947519475195
1.4550698580713767e-13,4.557742439032551e-16,2.378298856935939e-08,1.01009231081183e-06,1.0338754453439493e-06,1.503872254391407e-08,-87.35947359473595
1.6979297405343772e-13,5.610154025760819e-16,2.6232469194257577e-08,1.0780605565358133e-06,1.1042931960840604e-06,1.6692335632612336e-08,-87.19947199471994
1.9803194378341928e-13,6.900831075456244e-16,2.8924027994579704e-08,1.150324709615135e-06,1.1792489363317417e-06,1.8521017247714845e-08,-87.03947039470395
2.3085030309663715e-13,8.482612225182674e-16,3.188050793499989e-08,1.2271366911233065e-06,1.2590174307568708e-06,2.054253946558133e-08,-86.87946879468794
2.689709096567088e-13,1.041980130884719e-15,3.512679679710834e-08,1.3087618745731157e-06,1.3438889413831138e-06,2.277639520882344e-08,-86.71946719467195
3.132274668750321e-13,1.2790598519386323e-15,3.868999930617295e-08,1.3954797195578208e-06,1.4341700333705204e-06,2.5243956086486997e-08,-86.55946559465595
3.6458099736534535e-13,1.5690034651527397e-15,4.2599622712196727e-08,1.4875844300652669e-06,1.5301844189274644e-06,2.7968643818396893e-08,-86.39946399463994
4.241386824476378e-13,1.923350985114905e-15,4.68877767828885e-08,1.5853856381219265e-06,1.6322738409668483e-06,3.097611632545953e-08,-86.23946239462394
4.931753949938258e-13,2.356105818252243e-15,5.158938922611143e-08,1.6892091134228674e-06,1.7407989981804797e-06,3.429446964566511e-08,-86.07946079460794
5.731582963227325e-13,2.884248299284462e-15,5.674243762242503e-08,1.7993974996019414e-06,1.856140513266911e-06,3.7954456918380766e-08,-85.91945919459195
6.657749167586487e-13,3.528353620084485e-15,6.238819901453385e-08,1.916311077792999e-06,1.978699946110803e-06,4.198972576748998e-08,-85.75945759457593
7.729651945233014e-13,4.313334808291133e-15,6.857151836992749e-08,2.040328558127982e-06,2.1089008537764385e-06,4.643707550725655e-08,-85.59945599455995
8.96958009567701e-13,5.269335384101487e-15,7.534109720586464e-08,2.171847899811749e-06,2.2471898992449583e-06,5.133673569377435e-08,-85.43945439454394
1.0403128185783857e-12,6.4328010345666185e-15,8.274980374210982e-08,2.311287160404365e-06,2.394038010892094e-06,5.6732667649670676e-08,-85.27945279452794
1.2059670756168583e-12,7.84776522863364e-15,9.08550060267364e-08,2.459085374932705e-06,2.549941594774282e-06,6.26728907007536e-08,-85.11945119451195
1.3972902106698378e-12,9.567390309374454e-15,9.971892956376861e-08,2.6157034654405816e-06,2.715423801861951e-06,6.92098349806814e-08,-84.95944959449594
1.6181450369119462e-12,1.1655813425530845e-14,1.0940904105864667e-07,2.7816251815728873e-06,2.8910358524323845e-06,7.640072278382205e-08,-84.79944799447995
1.8729575679413196e-12,1.4190355917261824e-14,1.19998459988554e-07,2.9573580727739986e-06,3.0773584199104766e-06,8.430798057756224e-08,-84.63944639446393
2.1667963499983734e-12,1.7264165701845305e-14,1.315663997994447e-07,3.1434344926612854e-06,3.275003076521246e-06,9.299968392358068e-08,-84.47944479444794
2.5054625527291766e-12,2.0989375107651742e-14,1.4419864063051414e-07,3.3404126361159566e-06,3.4846138031983987e-06,1.0255003770349417e-07,-84.31944319443194
2.8955922170597643e-12,2.550087182173287e-14,1.5798803556954413e-07,3.5488776096089138e-06,3.7068685662715466e-06,1.1303989419784441e-07,-84.15944159441594
3.3447722320496247e-12,3.096079854802635e-14,1.730350525494637e-07,3.7694425352557083e-06,3.942480963538203e-06,1.2455731172917574e-07,-83.99943999439995
3.8616718062070735e-12,3.756391808580745e-14,1.894483541072911e-07,4.002749689065932e-06,4.192201942408947e-06,1.3719815674998975e-07,-83.83943839438393
4.456191414907775e-12,4.554400537495607e-14,2.073454173415937e-07,4.24947167382205e-06,4.456821592899064e-06,1.5106675243506594e-07,-83.67943679436794
5.139631446718961e-12,5.5181457248099394e-14,2.2685319652372378e-07,4.510312626990523e-06,4.737171018327151e-06,1.6627657702529958e-07,-83.51943519435194
5.9248830402842744e-12,6.681234491461845e-14,2.4810883094112005e-07,4.786009464030119e-06,5.034124286666624e-06,1.829510153669037e-07,-83.35943359433594
6.82664390295208e-12,8.08391744318257e-14,2.7126040067831497e-07,5.077333157425384e-06,5.348600465586776e-06,2.0122416729609487e-07,-83.19943199431994
7.861662235775879e-12,9.77436675847716e-14,2.964677331724568e-07,5.385090051729778e-06,5.681565744308138e-06,2.212417167351764e-07,-83.03943039430393
9.049012260464355e-12,1.181019308468401e-13,3.239032635153922e-07,5.710123214858226e-06,6.0340356454878094e-06,2.4316186559171065e-07,-82.87942879428795
1.0410405256230513e-11,1.4260244475873097e-13,3.537529516135316e-07,6.053313825820749e-06,6.4070773304419815e-06,2.6715633678832596e-07,-82.71942719427193
1.1970540472565218e-11,1.72067381682778e-13,3.86217259459553e-07,6.415582599036011e-06,6.801812001103418e-06,2.9341145099681124e-07,-82.55942559425594
1.3757500792458512e-11,2.0747784824252974e-13,4.2151219191677767e-07,6.797891245310409e-06,7.219417402205827e-06,3.2212928190693594e-07,-82.39942399423994
1.5803198584612025e-11,2.500037518986125e-13,4.598704045669998e-07,7.201243969506831e-06,7.661130427276167e-06,3.535288951275275e-07,-82.23942239422394
1.8143877808377104e-11,3.0103911141303105e-13,5.015423823262594e-07,7.6266890048678205e-06,8.128249832111e-06,3.8784767609559747e-07,-82.07942079420795
2.082067912759068e-11,3.6224377114741775e-13,5.467976926896532e-07,8.075320183890289e-06,8.622139059502841e-06,4.253427526581699e-07,-81.91941919419193
2.388027555585419e-11,4.355926423742929e-13,5.959263176258437e-07,8.548278545578896e-06,9.144229179072937e-06,4.6629251829132433e-07,-81.75941759417594
2.737558700338074e-11,5.234337846748472e-13,6.492400683044593e-07,9.046753978834304e-06,9.69602194615955e-06,5.109982622320668e-07,-81.59941599415994
3.136658303217025e-11,6.285568612124675e-13,7.070740870039484e-07,9.571986901651586e-06,1.0279092983795428e-05,5.597859131202215e-07,-81.43941439414394
3.592118416061805e-11,7.542737579877379e-13,7.697884407145033e-07,1.0125269975726139e-05,1.0895095091898562e-05,6.130079030807196e-07,-81.27941279412794
4.111627319996176e-11,9.045134545759987e-13,8.377698111188833e-07,1.0707949855977571e-05,1.1545761687883109e-05,6.710451595201157e-07,-81.11941119411193
4.703882936337974e-11,1.0839335786043014e-12,9.114332858037898e-07,1.1321428974413256e-05,1.2232910382979987e-05,7.343092322657431e-07,-80.95940959409594
5.3787199274995084e-11,1.2980514755277723e-12,9.91224255724996e-07,1.1967167357660773e-05,1.2958446698636519e-05,8.032445640408301e-07,-80.79940799407993
6.147252053235818e-11,1.553398087336777e-12,1.07762042412009e-06,1.2646684477399143e-05,1.3724367927437853e-05,8.783309126440832e-07,-80.63940639406394
7.022031515502008e-11,1.857698468058164e-12,1.171133932233897e-06,1.3361561132821847e-05,1.4532767143069366e-05,9.60085933587763e-07,-80.47940479404794
8.017227209729484e-11,2.220083381019889e-12,1.2723136073907814e-06,1.411344136415327e-05,1.538583736389953e-05,1.0490679323425543e-06,-80.31940319403193
9.148824003033955e-11,2.651337135053208e-12,1.3817473391173496e-06,1.490403439613642e-05,1.6285875874830933e-05,1.1458787957420809e-06,-80.15940159401595
1.0434845382311445e-10,3.1641876380193013e-12,1.5000645891848936e-06,1.573511661029314e-05,1.7235288712119492e-05,1.2511671125120434e-06,-79.99939999399993
1.189560205910635e-10,3.7736455921035235e-12,1.627939041604617e-06,1.66085335446403e-05,1.82365953159111e-05,1.3656314933095326e-06,-79.83939839398394
1.355396938540832e-10,4.497400844215719e-12,1.7660913987691574e-06,1.7526201919427584e-05,1.929243335529144e-05,1.490024101086354e-06,-79.67939679396794
1.5435696727128726e-10,5.356285156987651e-12,1.9152923300884925e-06,1.8490111687330866e-05,2.0405563730671788e-05,1.6251544030236538e-06,-79.51939519395194
1.75697522620949e-10,6.374812104451813e-12,2.076365579619629e-06,1.9502328106412757e-05,2.1578875758367113e-05,1.7718931557260588e-06,-79.35939359393593
1.9988707019239202e-10,7.581806447750064e-12,2.250191239332489e-06,2.0564993834022807e-05,2.2815392542231936e-05,1.9311766358073006e-06,-79.19939199391993
2.2729162357730632e-10,9.011137239872872e-12,2.4377091947914766e-06,2.1680331039676824e-05,2.411827653722912e-05,2.104011128447738e-06,-79.03939039390394
2.583222550170009e-10,1.0702571078039573e-11,2.639922750160402e-06,2.2850643534812966e-05,2.5490835309799464e-05,2.291477686954486e-06,-78.87938879388793
2.934403820074016e-10,1.2702764405818209e-11,2.857902439556752e-06,2.407831891717604e-05,2.6936527499879204e-05,2.4947371768056967e-06,-78.71938719387194
3.33163640815208e-10,1.5066416607231638e-11,3.092790031890296e-06,2.5365830727439568e-05,2.8458968989387285e-05,2.715035618112381e-06,-78.55938559385594
3.780724079475979e-10,1.7857608880063784e-11,3.345802736415604e-06,2.671574061551691e-05,3.006193928194934e-05,2.953709840878259e-06,-78.39938399383993
4.288170364786075e-10,2.115135757965998e-11,3.6182376163125048e-06,2.8130700513865753e-05,3.174938809857232e-05,3.2121934678843914e-06,-78.23938239382394
4.861258805028738e-10,2.5035414948623503e-11,3.9114762176756606e-06,2.9613454814929864e-05,3.352544219390098e-05,3.4920232404639197e-06,-78.07938079380793
5.508141878997354e-10,2.9612354960459614e-11,4.226989421346624e-06,3.1166842549701224e-05,3.539441239759071e-05,3.7948457028630453e-06,-77.91937919379194
6.237939490881913e-10,3.500198748321226e-11,4.5663425250575345e-06,3.2793799564230806e-05,3.7360800885224914e-05,4.122424261307792e-06,-77.75937759377594
7.060847975768956e-10,4.134415019846677e-11,4.931200563369035e-06,3.449736069074037e-05,3.942930868305718e-05,4.476646634303007e-06,-77.59937599375993
7.988260669093522e-10,4.8801934788134257e-11,5.323333872882245e-06,3.62806619098335e-05,4.160484341071744e-05,4.859532711087377e-06,-77.43937439374393
9.032901181177749e-10,5.756541193370796e-11,5.744623910175146e-06,3.814694250012763e-05,4.389252726583283e-05,5.273242835543966e-06,-77.27937279372793
1.02089706207997e-09,6.785592878042189e-11,6.19706932986356e-06,4.009954717146252e-05,4.629770525431694e-05,5.720086533224432e-06,-77.11937119371194
1.1532310122733056e-09,7.993106283584894e-11,6.682792330108921e-06,4.2141928177670406e-05,4.882595366985444e-05,6.2025316994791464e-06,-76.95936959369593
1.3020580153913006e-09,9.409032794817807e-11,7.204045272789468e-06,4.4277647404717255e-05,5.148308882585006e-05,6.723214266993517e-06,-76.79936799367994
1.4693458201898285e-09,1.1068174120970171e-10,7.763217585419568e-06,4.651037842986192e-05,5.4275176042842885e-05,7.2849483713119205e-06,-76.63936639366393
1.6572856588165044e-09,1.3010937454011445e-10,8.362842951732248e-06,4.8843908547292324e-05,5.720853889405793e-05,7.890737033173525e-06,-76.47936479364793
1.8683162298137656e-09,1.5284203152690082e-10,9.005606797645037e-06,5.128214075554234e-05,6.028976871144872e-05,8.54378337669777e-06,-76.31936319363194
2.1051500880321573e-09,1.794232090627402e-10,9.694354079092495e-06,5.3829095701810554e-05,6.352573435420014e-05,9.247502402624717e-06,-76.15936159361593
2.3708026639128273e-09,2.104825246734604e-10,1.0432097377937575e-05,5.64889135781305e-05,6.692359224125667e-05,1.0005533335940644e-05,-75.99935999359994
2.6686241530659974e-09,2.467488144519694e-10,1.1222025311866296e-05,5.926585596418661e-05,7.049079664902043e-05,1.0821752567299843e-05,-75.83935839358394
3.002334536848405e-09,2.8906513350933607e-10,1.206751126381388e-05,6.216430761138075e-05,7.423511027486499e-05,1.1700287207672897e-05,-75.67935679356793
3.376062015807145e-09,3.384059211616739e-10,1.2972122436080663e-05,6.518877816261183e-05,7.816461506662947e-05,1.2645529275624472e-05,-75.51935519355193
3.794385160472998e-09,3.9589662706128e-10,1.3939629233852892e-05,6.834390380205175e-05,8.228772331769218e-05,1.3662150536527189e-05,-75.35935359353593
4.2623791081342655e-09,4.628361325611848e-10,1.4974014982358501e-05,7.163444882905122e-05,8.661318902665042e-05,1.4755118012858797e-05,-75.19935199351993
4.7856661599720636e-09,5.407223442213237e-10,1.6079485981350563e-05,7.50653071501519e-05,9.115011952000665e-05,1.5929710184498492e-05,-75.03935039350394
5.370471160369014e-09,6.312813840133744e-10,1.726048190002654e-05,7.864150368302935e-05,9.590798733560027e-05,1.7191533897632364e-05,-74.87934879348794
6.023682069387104e-09,7.365008539963912e-10,1.8521686514847653e-05,8.236819566604426e-05,0.0001008966423638153,1.8546542000487004e-05,-74.71934719347193
6.752916170427217e-09,8.586677126050728e-10,1.9868038792033645e-05,8.625067386694671e-05,0.00010612632424286339,2.0001051723639197e-05,-74.55934559345593
7.566592388003772e-09,1.0004113658559028e-09,2.1304744315752497e-05,9.029436368413248e-05,0.00011160767500363883,2.156176382208097e-05,-74.39934399343993
8.474010225469254e-09,1.1647526504328476e-09,2.28372870622183e-05,9.450482613373304e-05,0.00011735175195882725,2.3235782495557083e-05,-74.23934239342393
9.485435869477438e-09,1.3551594675221276e-09,2.4471441519041444e-05,9.888775871569361e-05,0.00012337004083007205,2.5030636102926953e-05,-74.07934079340794
1.0612196047050514e-08,1.5756099172493291e-09,2.6213285148245173e-05,0.00010344899615188802,0.00012967446910609748,2.695429868543012e-05,-73.91933919339193
1.186678026238148e-08,1.8306638845254384e-09,2.8069211190368702e-05,0.00010819451098920275,0.00013627741962371836,2.9015212312746078e-05,-73.75933759337593
1.3262952084025763e-08,2.1255441389989575e-09,3.0045941806024046e-05,0.00011313041406044527,0.00014319174436269234,3.122231026463876e-05,-73.59933599335993
1.4815870198967098e-08,2.4662281356833655e-09,3.215054155014919e-05,0.00011826295479583184,0.0001504307784443157,3.3585041059742714e-05,-73.43933439334393
1.654221999824711e-08,2.859551839809867e-09,3.4390431173014076e-05,0.00012359852137773885,0.00015800835432259097,3.6113393341691376e-05,-73.27933279332792
1.846035650946262e-08,3.313327050758488e-09,3.6773401740782515e-05,0.00012914364073134224,0.000165938816155685,3.8817921631295753e-05,-73.11933119331194
2.05904595445073e-08,3.836473866848416e-09,3.930762906711285e-05,0.00013490497834371627,0.00017423703434424047,4.170977295184868e-05,-72.95932959329593
2.2954701986493233e-08,4.4391701167174464e-09,4.2001688445885565e-05,0.00014088933790391077,0.00018291842022189955,4.480071433284817e-05,-72.79932799327993
2.5577432197859766e-08,5.133019785490459e-09,4.486456967370022e-05,0.000147103660756523,0.00019199894088220656,4.810316119551301e-05,-72.63932639326393
2.8485371592263624e-08,5.9312426865165754e-09,4.790569234924765e-05,0.00015355502516124295,0.0002014951341247694,5.163020662137518e-05,-72.47932479324793
3.1707828475960995e-08,6.84888787385374e-09,5.113492143508001e-05,0.00016025064535086567,0.0002114241235022955,5.539565150299456e-05,-72.31932319323192
3.5276929330007305e-08,7.903073558700543e-09,5.45625830656375e-05,0.0001671978703802738,0.0002218036334488,5.94140355734383e-05,-72.15932159321594
3.9227868772700886e-08,9.113256586537957e-09,5.8199480583671176e-05,0.00017440418275893124,0.00023265200446796167,6.37006693085951e-05,-71.99931999319993
4.3599179512216136e-08,1.0501534852875876e-08,6.205691078540082e-05,0.00018187719685946376,0.00024398820835922966,6.82716666936492e-05,-71.83931839318393
4.843302367228138e-08,1.2092986386344989e-08,6.614668035291084e-05,0.00018962465709498086,0.0002558318634579503,7.314397884213151e-05,-71.67931679316793
5.377550694892446e-08,1.3916049210678696e-08,7.04811224503551e-05,0.0001976544358578647,0.0002682032498643794,7.833542845286492e-05,-71.51931519315193
5.96770171336704e-08,1.600294651426169e-08,7.507311345857908e-05,0.00020597453121285413,0.00028112332463508117,8.386474508685297e-05,-71.35931359313592
6.61925886179868e-08,1.8390162109849264e-08,7.993608982073339e-05,0.0002145930643373649,0.0002946137369088261,8.975160124271229e-05,-71.19931199311993
7.338229457507379e-08,2.1118971660363558e-08,8.508406496936822e-05,0.00022351827670213638,0.00030869684293774,9.601664920561464e-05,-71.03931039310393
8.13116685980975e-08,2.4236035682013155e-08,9.053164630336048e-05,0.0002327585269854281,0.0003233957209930687,0.00010268155864088354,-70.87930879308793
9.005215765851178e-08,2.7794060916160123e-08,9.62940521808487e-05,0.00024232228771418944,0.00033873418611361284,0.00010976905489940819,-70.71930719307193
9.968160833386117e-08,3.185253728918281e-08,0.00010238712889212204,0.0002522181416258062,0.0003547368046635513,0.00011730295799784106,-70.55930559305592
1.1028478834124476e-07,3.647855835802752e-08,0.00010882736757414394,0.0002624547777442475,0.0003714289086650907,0.00012530822223220093,-70.39930399303992
1.2195394550003848e-07,4.1747733871170496e-08,0.00011563192102609742,0.0002730409871646763,0.00038883660987014493,0.00013381097637896023,-70.23930239302393
1.3478940633527337e-07,4.7745203863365824e-08,0.00012281862038301846,0.0002839856585408475,0.0004069868135340646,0.0001428385644329881,-70.07930079300793
1.4890021662072475e-07,5.4566764550907693e-08,0.00013040599160221746,0.0002952977732698861,0.0004259072318532752,0.00015241958682683197,-69.91929919299193
1.644048262480482e-07,6.232011720526548e-08,0.0001384132717148571,0.0003069864003693652,0.00044562639702767557,0.00016258394207079282,-69.75929759297593
1.8143182089452226e-07,7.112625215990063e-08,0.00014686042479264923,0.0003190606910419017,0.00046617367390760535,0.000173362868748017,-69.59929599295992
2.0012070304677102e-07,8.112098115087891e-08,0.00015576815757728453,0.00033152987292285233,0.0004875792721843345,0.00018478898779349201,-69.43929439294392
2.2062272502059562e-07,9.245663230949884e-08,0.00016515793471782314,0.00034440324400705877,0.000509874258082212,0.00019689634498030851,-69.27929279292792
2.431017766971798e-07,1.05303923317397e-07,0.00017505199355892712,0.0003576901662509802,0.0005330905655099218,0.00020972045353093014,-69.11929119291193
2.6773533077275625e-07,1.1985402950416027e-07,0.00018547335842048762,0.000371400058846973,0.0005572610066277375,0.0002232983367654346,-68.95928959289593
2.9471544839158814e-07,1.363208650168813e-07,0.00019644585430687641,0.0003855423911669008,0.0005824192817871856,0.00023766857069279935,-68.79928799287993
3.2424984810026513e-07,1.5494359662264365e-07,0.00020799411998182268,0.00040012667537274845,0.000608599988799294,0.00025287132644534997,-68.63928639286392
3.565630411236719e-07,1.7598941122054616e-07,0.00022014362034267386,0.00041516245869235787,0.000635838631487376,0.00026894841245038567,-68.47928479284792
3.918975360190741e-07,1.9975655974127423e-07,0.0002329206580256731,0.00043065931535894036,0.0006641716274803738,0.0002859433162268716,-68.31928319283192
4.3051511581335966e-07,2.2657770180063903e-07,0.0002463523841717855,0.00044662683821353096,0.0006936363152029305,0.00030390124568886517,-68.15928159281593
4.7269819076885333e-07,2.5682357724974655e-07,0.0002604668082806389,0.00046307462997010457,0.0007242709600187621,0.000322869169831125,-67.99927999279993
5.187512299539671e-07,2.9090703262862035e-07,0.0002752928070781934,0.00048001229414363174,0.0007561147594844077,0.0003428958586660395,-67.83927839278392
5.690022748155189e-07,3.2928743248219104e-07,0.0002908601323220212,0.0004974494256419731,0.000789207847671292,0.00036403192227479745,-67.67927679276792
6.238045379584416e-07,3.7247548753601235e-07,0.0003071994174663358,0.0005153956010230774,0.0008235912985149077,0.0003863298488294314,-67.51927519275192
6.835380903347707e-07,4.2103853385253627e-07,0.0003243421831073945,0.0005338603684196184,0.0008593071281512003,0.00040984404143615656,-67.35927359273592
7.486116400259438e-07,4.756062992942993e-07,0.0003423208411284849,0.0005528532371338286,0.0008963982962016338,0.0004346308536443112,-67.19927199271993
8.194644057694711e-07,5.368771959043641e-07,0.00036116869746243913,0.0005723836669059799,0.0009349087059700929,0.0004607486234591259,-67.03927039270393
8.965680883312305e-07,6.056251791721194e-07,0.00038091995338853654,0.0005924610568605972,0.0009748832035166371,0.000488257705690588,-66.87926879268792
9.804289427572398e-07,6.827072175783454e-07,0.00040160970527975884,0.0006130947341352672,0.0010163675755753617,0.0005172205024649308,-66.71926719267192
1.0715899544517741e-06,7.690714182999333e-07,0.00042327394271564215,0.0006342939421975523,0.0010594085462859461,0.0005477014917195836,-66.55926559265592
1.1706331219211158e-06,8.657658574935066e-07,0.0004459495448754474,0.000656067828856277,0.001104053772711139,0.0005797672534970293,-66.39926399263992
1.2781818488924156e-06,9.73948166158513e-07,0.00046967427512610246,0.0006784254339742103,0.0011503518391153635,0.000613486493847804,-66.23926239262393
1.3949034483638614e-06,1.094895925192577e-06,0.0004944867737193197,0.0007013756768899109,0.001198352249982787,0.0006489300661479554,-66.07926079260793
1.521511760963569e-06,1.2300179258813232e-06,0.00052042654851243,0.0007249273435572428,0.0012481054217565175,0.0006861709896315811,-65.91925919259192
1.6587698897898682e-06,1.3808663546978729e-06,0.0005475339636279987,0.0007490890734119185,0.0012996626732844048,0.0007252844649348449,-65.75925759257592
1.807493053672273e-06,1.5491499639045838e-06,0.0005758502259679314,0.0007738693459751244,0.0013530762149606326,0.000766347886443824,-65.59925599255992
1.968551560529852e-06,1.7367482920349974e-06,0.000605417369498823,0.000799276467205145,0.0014083991365565329,0.0008094408512350178,-65.43925439254392
2.1428739022102177e-06,1.9457270008640545e-06,0.0006362782372265582,0.0008253185556086435,0.001465685393738276,0.0008546451643942262,-65.27925279252793
2.331449971866434e-06,2.178354397927794e-06,0.0006684764607798138,0.0008520035281241194,0.0015249897932737276,0.0009020448404968314,-65.11925119251192
2.535334404569351e-06,2.43711921600339e-06,0.0007020564375239333,0.0008793390857907868,0.0015863679769352928,0.0009517261010303042,-64.95924959249592
2.7556500414587565e-06,2.7247497231794333e-06,0.0007370633051290096,0.0009073326992170043,0.001649876404110652,0.001003777367538214,-64.79924799247992
2.993591517305466e-06,3.04423423920376e-06,0.0007735429135184514,0.0009359915938631214,0.001715572333138082,0.0010582892502638793,-64.63924639246392
3.2504289708886054e-06,3.3988431356594213e-06,0.0008115417941272916,0.000965322735154446,0.0017835138013882856,0.0011153545320713668,-64.47924479244791
3.5275118770857806e-06,3.792152399153537e-06,0.0008511071264027505,0.0009953328134408026,0.0018537596041197923,0.0011750681474217456,-64.31924319243193
3.8262729990279674e-06,4.228068838070722e-06,0.000892286701483173,0.0010260282288199662,0.0019263692721402381,0.0012375271561833546,-64.15924159241592
4.148232458084544e-06,4.710857014501012e-06,0.0009351288829954168,0.0010574150758429883,0.0020014030483109907,0.0013028307120563588,-63.99923999239992
4.495001918817901e-06,5.2451679836624075e-06,0.0009796825649151996,0.0010894991281202608,0.002078921862937941,0.001371080025394312,-63.83923839238392
4.8682888853778824e-06,5.836069923449582e-06,0.0010259971264395512,0.0011222858228478534,0.002158987308096232,0.0014423783202083917,-63.67923679236792
5.2699011050972625e-06,6.489080736611112e-06,0.0010741223838256564,0.001155780245274437,0.0022416616109418018,0.001516830785143923,-63.519235192351914
5.701751074297294e-06,7.210202707432924e-06,0.0011241085391558462,0.0011899871131298065,0.0023270076060673828,0.0015945445182235568,-63.359233592335926
6.165860640519652e-06,8.005959293637463e-06,0.0011760061259943751,0.0012249107610367458,0.002415088706965278,0.0016756284651570574,-63.19923199231992
6.664365694565212e-06,8.883434132438348e-06,0.0012298659519077544,0.0012605551249285868,0.0025059688766633447,0.0017601933510240063,-63.03923039230392
7.199520944845713e-06,9.850312337268664e-06,0.0012857390378271656,0.0012969237264955809,0.002599712597604861,0.00184835160514339,-62.87922879228792
7.77370476563765e-06,1.0914924158563428e-05,0.0013436765542383022,0.001334019657683729,0.0026963848408462325,0.0019402172789520697,-62.719227192271916
8.389424109872898e-06,1.2086291078071098e-05,0.001403729754191435,0.0013718455652703687,0.002796051034649748,0.00203590595672362,-62.55922559225591
9.049319476108553e-06,1.3374174401432478e-05,0.0014659499031320867,0.001410403635541383,0.0028987770325510104,0.00213553465896921,-62.399223992239925
9.756169918289689e-06,1.4789126408139632e-05,0.0015303882055608866,0.0014496955790954426,0.0030046290809827587,0.0022392217383734436,-62.23922239222392
1.0512898085855532e-05,1.6342544111408907e-05,0.0015970957285393198,0.001489722615801146,0.00311367378653773,0.0023470867681302634,-62.07922079220792
1.1322575280646846e-05,1.804672567292175e-05,0.0016661233220671096,0.001530485459933501,0.003225978082954179,0.0024592504225574444,-61.91921919219192
1.2188426515947715e-05,1.9914929508730066e-05,0.0017375215363656688,0.0015719843055164943,0.003341609197906841,0.002575834349882255,-61.759217592175915
1.3113835561846394e-05,2.196143611284758e-05,0.0018113405361115844,0.0016142188118989866,0.0034606346196852647,0.00269696103710627,-61.59921599215991
1.4102349959928474e-05,2.4201612614091824e-05,0.0018876300116735976,0.0016571880895914475,0.0035831220638390653,0.002822753666873514,-61.439214392143924
1.5157685989125238e-05,2.6651980069553447e-05,0.0019664390874164443,0.0017008906863914283,0.0037091394398665514,0.0029533359662835827,-61.27921279212792
1.628373356333425e-05,2.9330283484595216e-05,0.002047816227144896,0.0017453245738258045,0.0038387548180186296,0.0030888320476092886,-61.11921119211192
1.7484561040217164e-05,3.2255564534497195e-05,0.002131809136771863,0.0017904871339381864,0.003972036396284764,0.003229366240898195,-60.95920959209592
1.8764419919356945e-05,3.5448236946696425e-05,0.0022184646643047226,0.0018363751464499259,0.004109052467620702,0.003375062918457058,-60.799207992079914
2.012774940674047e-05,3.893016448501558e-05,0.002307828697254782,0.0018829847763233087,0.004249871387469847,0.0035260463112397633,-60.63920639206391
2.1579180821317593e-05,4.2724741458290225e-05,0.0023999460575856095,0.0019303115617555818,0.0043945615416207985,0.0036824403171811957,-60.47920479204792
2.3123541818190244e-05,4.685697565537613e-05,0.002494860394326928,0.001978350402632476,0.00454319131443297,0.0038443683015425612,-60.31920319203192
2.4765860401799874e-05,5.135357358662442e-05,0.002592614073991555,0.0020270955494697336,0.004695829057449713,0.004011952889357231,-60.15920159201592
2.6511368701332107e-05,5.624302788858025e-05,0.002693248068944265,0.0020765405928712248,0.004852543058405402,0.004185315750091162,-59.999199991999916
2.83655064794314e-05,6.155570672385358e-05,0.0027968018438821653,0.002126678453531861,0.005013401510617311,0.004364577374656875,-59.83919839198391
3.0333924344240122e-05,6.732394498189196e-05,0.0029033132405974654,0.0021775013728134135,0.005178472482737011,0.004549856844946229,-59.67919679196791
3.242248663374576e-05,7.358213705875978e-05,0.0030128183612043147,0.0022290009039210327,0.0053478238888178525,0.00474127159607384,-59.51919519195191
3.463727394044444e-05,8.036683096505185e-05,0.0031253514500224166,0.0022811679037078453,0.005521523458635758,0.004938937171550253,-59.35919359193592
3.698458524342528e-05,8.771682348080247e-05,0.0032409447743208196,0.0023339925251347165,0.005699638708179764,0.005142966971631865,-59.19919199191992
3.947093961414043e-05,9.567325604474616e-05,0.003359628504135712,0.002387464210411612,0.00588223691020621,0.005353471995122409,-59.039190391903915
4.210307746138811e-05,0.00010427971103268824,0.003481430591386734,0.002441571684846659,0.00606938506472747,0.005570560574930029,-58.87918879188791
4.488796128037035e-05,0.0001135823080460737,0.003606376648526088,0.0024963029514282315,0.006261149869280763,0.005794338107712262,-58.71918719187191
4.7832775870143034e-05,0.00012362979979730913,0.003734489826964694,0.0025516452861647923,0.006457597688796939,0.006024906777970614,-58.55918559185591
5.094492798333127e-05,0.00013447366714308077,0.0038657906955290675,0.0026075852342065087,0.006658794524861988,0.006262365276985514,-58.39918399183992
5.423204537167189e-05,0.00014616821278100778,0.004000297119211717,0.002664108606771833,0.006864805984136229,0.006506808517011733,-58.23918239182392
5.770197519074937e-05,0.0001587706530886191,0.004138024138486279,0.002721200478901338,0.007075697245666986,0.006758327341183152,-58.079180791807914
6.136278172725933e-05,0.00017234120754711557,0.004278983849467181,0.0027788451880603267,0.007291533026801883,0.0070170082296053165,-57.91917919179191
6.522274341222972e-05,0.00018694318515577647,0.004423185285200868,0.0028370263336105687,0.007512377547379443,0.007282933002142236,-57.75917759177591
6.929034908390048e-05,0.00020264306720654091,0.004570634298382971,0.0028957267771706078,0.00773829449184402,0.007556178518432587,-57.59917599175991
7.357429346439693e-05,0.000219510585752418,0.004721333445802222,0.0029549286438829035,0.00796934696890194,0.00783681637569806,-57.43917439174392
7.80834718149458e-05,0.00023761879706827156,0.004875281874817835,0.0030146133246049837,0.008205597468306035,0.008124912604934025,-57.279172791727916
8.282697373517428e-05,0.0002570441493684059,0.0050324752121820235,0.0030747614790404476,0.008447107814326052,0.008420527366098511,-57.119171191711914
8.781407607303896e-05,0.0002778665440127001,0.00519290545552422,0.003135353039824527,0.008693939115434486,0.008723714642942143,-56.95916959169591
9.305423491310865e-05,0.00030016938940191683,0.005356560867816764,0.003196367217577475,0.008946151709709265,0.009034521938145197,-56.79916799167991
9.855707661233912e-05,0.00032403964673377394,0.005523425875145074,0.0032577825069377005,0.009203805105428887,0.0093529899694524,-56.639166391663906
0.00010433238785408528,0.0003495678667646585,0.005693480968107202,0.0033195766935851336,0.009466957916311079,0.009679152367517877,-56.47916479164792
0.0001103901046929398,0.00037684821669789356,0.00586670260716905,0.0033817268622638717,0.009735667790823755,0.010013035376194333,-56.319163191631915
0.00011674030056503091,0.00040597849629852624,0.006043063132301458,0.003444209405811474,0.01000999133497649,0.010354657556019288,-56.15916159161591
0.000123393173240721,0.00043706014231727745,0.0062225306772253665,0.003507000035200928,0.010289984027984294,0.010704029491670517,-55.99915999159991
0.0001303590306991418,0.00047019822029266477,0.0064050690885890426,0.003570073790599497,0.010575700130180346,0.011061153504178146,-55.83915839158391
0.0001376482759067662,0.0005055014027910522,0.006590637850399257,0.0036334050534470906,0.010867192582544167,0.011426023368696282,-55.679156791567905
0.00014527139048518746,0.0005430819331397022,0.006779192014024508,0.0036969675595551195,0.011164512897204517,0.011798624038649367,-55.51915519155192
0.00015323891725650056,0.0005830555737083179,0.006970682134084069,0.0037607344132250583,0.011467711038273945,0.012178931377079873,-55.359153591535915
0.00016156144165810392,0.0006255415378002506,0.007165054210530617,0.003824678102384124,0.011776835292373096,0.012566911896031626,-55.19915199151991
0.00017024957202243225,0.0006706624042262432,0.007362249637228186,0.003888770514733872,0.012091932128210733,0.012962522504810975,-55.03915039150391
0.00017931391872100312,0.0007185440136511512,0.007562205157318925,0.003952982954905505,0.012413046044596584,0.013365710267971002,-54.87914879148791
0.00018876507217627155,0.0007693153458283322,0.007764852825663699,0.004017286162614012,0.012740219406282314,0.013776412173866614,-54.719147191471905
0.00019861357974910665,0.0008231083768673309,0.007970119978631743,0.004081650331801366,0.013073492267049545,0.014194554914627426,-54.559145591455916
0.00020886992151421488,0.0008800579157186058,0.00817792921150369,0.004146045130757202,0.013412902179493712,0.014620054678392651,-54.399143991439914
0.0002195444849405276,0.0009403014191043481,0.008388198363740223,0.004210439723203428,0.013758483990988526,0.015052816954645696,-54.23914239142391
0.0002306475384984773,0.001003978784177618,0.008600840512356116,0.004274802790327568,0.01411026962535978,0.015492736353478987,-54.07914079140791
0.0002421892042210979,0.0010712321182526695,0.00881576397362485,0.004339102553747553,0.014468287849846169,0.01593969643960746,-53.919139191391906
0.0002541794292511012,0.00114220548501815,0.009032872313324515,0.004403306799389009,0.014832564026982775,0.01639356958193585,-53.759137591375904
0.00026662795641138956,0.0012170446267215768,0.00925206436571942,0.004467382902254084,0.015203119851106471,0.016854216819468096,-53.599135991359915
0.00027954429384191587,0.001295896661898457,0.009473234261455158,0.004531297852059197,0.015579973069254727,0.01732148774432819,-53.43913439134391
0.00029293768375130634,0.0013789097583122142,0.00969627146452662,0.004595018279717057,0.015963137186307198,0.017795220402638444,-53.27913279132791
0.0003068170703373053,0.0014662327808723388,0.009921060818460285,0.004658510484636765,0.016352621154306694,0.018275241213977684,-53.11913119131191
0.0003211910669357092,0.0015580149144069513,0.010147482601831964,0.00472174046281379,0.016748429045988413,0.01876136491011242,-52.959129591295905
0.00033606792246316895,0.0016544052612827776,0.010375412593220988,0.004784673935680045,0.01715055971264698,0.01925339449366402,-52.7991279912799
0.000351455487224896,0.0017555524139897122,0.010604722145680631,0.004847276379682482,0.01755900642657772,0.019751121217341346,-52.639126391263915
0.000367361178163986,0.0018616040029386816,0.010835278270782745,0.0049095130565570385,0.017973756508442452,0.020254324584331834,-52.47912479124791
0.00038379194363463015,0.0019727062198595423,0.011066943732271508,0.004971349044262987,0.018394790940028667,0.020762772370404463,-52.31912319123191
0.0004007542277870622,0.0020890033173306603,0.011299577149338864,0.005032749268541404,0.01882208396299799,0.021276220668237634,-52.15912159121591
0.00041825393465743456,0.002210637085121979,0.011533033109509672,0.005093678535059665,0.01925560266434875,0.021794413954439207,-51.999119991199905
0.00043629639206112204,0.002337746304189186,0.011767162291100778,0.0051541015621026035,0.01969530654945369,0.022317085179679997,-51.8391183911839
0.0004548863153930184,0.002470466179316766,0.012001811595193592,0.0052139830137694475,0.020141147103672825,0.02284395588231256,-51.679116791167914
0.0004740277714432991,0.002608927751571783,0.012236824287034686,0.005273287533634326,0.020593067343684095,0.023374736325795693,-51.51911519115191
0.0004937241423417347,0.0027532572918970463,0.012472040146753514,0.005331979778826786,0.02105100135981908,0.023909125660190652,-51.35911359113591
0.0005139780897480796,0.002903575677341742,0.012707295629261409,0.005390024454487667,0.021514873850838896,0.024446812107940488,-51.199111991119906
0.0005347915194100852,0.0030599977515974835,0.012942424033169872,0.0054473863485543705,0.021984599652731814,0.024987473174085013,-51.039110391103904
0.0005561655462144719,0.003222631671678313,0.013177255678540929,0.005504030366828591,0.022460083263262307,0.025530775881004705,-50.8791087910879
0.0005781004598595684,0.0033915782427524407,0.0134116180932566,0.005559921568278544,0.022941218364147156,0.026076377027725903,-50.71910719107191
0.0006005956912813322,0.003566930243301025,0.01364533620776931,0.00561502520052683,0.023427887342878498,0.026623923473756902,-50.55910559105591
0.0006236497799670002,0.003748771742942958,0.013878232557969276,0.0056693067354741675,0.0239199608163534,0.027173052447359795,-50.39910399103991
0.0006472603422927984,0.003937177415424786,0.014110127495880892,0.005722731905008662,0.02441729715860714,0.027723391878099454,-50.239102391023906
0.0006714240410237068,0.004132211849428248,0.014340839407874582,0.005775266736749395,0.024919742035075933,0.02827456075344342,-50.0791007910079
0.0006961365561144558,0.00433392885999509,0.0145701849400572,0.005826877589772757,0.0254271279459395,0.028826169499120584,-49.9190991909919
0.0007213925569514997,0.004542370803507352,0.014797979230480146,0.005877531190269376,0.025939273781208375,0.029377820382879283,-49.7590975909759
0.0007471856761757672,0.0047575678992903495,0.015024036147781519,0.005927194667079141,0.026455984390326776,0.029929107941217534,-49.59909599095991
0.000773508485225468,0.00497953756102386,0.015248168535856635,0.005975835587051627,0.026977050169157593,0.030479619428591162,-49.43909439094391
0.0008003524717370569,0.005208283741252675,0.015470188464129273,0.006023421990178891,0.027502246667297895,0.031028935288536823,-49.279092790927905
0.000827708018940798,0.005443796292380958,0.0156899074829763,0.006069922424447761,0.028031334218745818,0.03157662964608175,-49.1190911909119
0.0008555643871849309,0.00568605034761211,0.015907136883837984,0.006115305980358595,0.02856405759899362,0.03212227082074358,-48.9590895908959
0.0008839096977194844,0.005935005725358524,0.016121687963528242,0.006159542325057708,0.029100145711663958,0.03266542185935912,-48.7990879908799
0.0009127309188671196,0.006190606360690514,0.016333372292241435,0.006202601736030872,0.029639311307829937,0.03320564108791585,-48.63908639086391
0.0009420138547041098,0.00645277976742132,0.01654200198473631,0.006244455134305717,0.030181250741167454,0.03374248268149681,-48.47908479084791
0.0009717431363695646,0.006721436534432639,0.016747389974162197,0.006285074117111131,0.03072564376207553,0.03427549725138704,-48.319083190831904
0.0010019022161154932,0.0069964698598345785,0.01694935028797965,0.00632443098994256,0.031272153353872276,0.03480423244833096,-48.1590815908159
0.0010324733642039713,0.007277755126520575,0.017147698325414705,0.006362498797982527,0.03182042561412178,0.035328233580870595,-47.9990799907999
0.001063437668750845,0.007565149522625014,0.0173422511358755,0.0063992513568265985,0.03237008968407796,0.035847044247639424,-47.8390783907839
0.0010947750386078713,0.00785849171031536,0.017532827697750383,0.006434663282465815,0.03292075772913943,0.03636020698243308,-47.67907679076791
0.0011264642093671033,0.008157601546253194,0.017719249196999073,0.0064687100204776134,0.03347202497309698,0.03686726391082735,-47.519075190751906
0.001158482752562548,0.008462279856937484,0.01790133930494169,0.006501367874378218,0.03402346978881994,0.03736775741706523,-47.3590735907359
0.0011908070881349426,0.008772308272001284,0.018078924454646435,0.006532614033090821,0.034574653847873484,0.03786123081989134,-47.1990719907199
0.0012234125002155633,0.00908744911836617,0.018251834115313163,0.0065624265974849,0.03512512233137979,0.038347229055968816,-47.0390703907039
0.0012562731562747067,0.009407445377970895,0.01841990106404907,0.006590784605943549,0.03567440420423822,0.03882529936947637,-46.879068790687896
0.0012893621296696251,0.009732020711579796,0.01858296165443294,0.006617668058917014,0.03622201255459938,0.03929499200644831,-46.71906719067191
0.0013226514256154552,0.010060879550944413,0.018740856081266632,0.006643057942422203,0.03676744500024871,0.03975586091238975,-46.559065590655905
0.0013561120105909479,0.010393707261337603,0.018893428640915998,0.006666936250449507,0.037310184163294055,0.040207464431671246,-46.3990639906399
0.0013897138451788623,0.01073017037620687,0.019040527986649434,0.006689286006240018,0.03784969821427518,0.040649366007185786,-46.2390623906239
0.0014234259203284429,0.011069916905399822,0.019182007378389036,0.006710091282397904,0.0383854414865152,0.04108113487873083,-46.0790607906079
0.0014572162970148308,0.011412576718104273,0.0193177249262986,0.00672933721980462,0.03891685516122233,0.041502346778564334,-45.919059190591895
0.001491052149257402,0.011757762001317909,0.0194475438276433,0.006747010045303507,0.03944336802352212,0.04191258462257358,-45.75905759057591
0.001524899810446058,0.012105067794320013,0.019571332596368347,0.006763097088125329,0.03996439728925975,0.04231143919548999,-45.599055990559904
0.0015587248229113149,0.012454072599260908,0.01968896528485766,0.006777586795027294,0.04047934950205718,0.04269850982858158,-45.4390543905439
0.0015924919906610028,0.012804339067618086,0.019800321697349646,0.006790468744120278,0.040987621499749015,0.043073405068259296,-45.2790527905279
0.0016261654351931321,0.0131554147618895,0.019905287594504082,0.006801733657361065,0.04148860144894778,0.0434357433340403,-45.1190511905119
0.0016597086542814842,0.013506832991509829,0.020003754888632985,0.006811373411688644,0.041981669946112944,0.043785153564325066,-44.959049590495894
0.0016930845836175233,0.013858113721584799,0.02009562182912863,0.006819381048785854,0.04246620118311681,0.04412127584846196,-44.799047990479906
0.0017262556611795186,0.014208764552645144,0.020180793177643572,0.006825750783449956,0.042941564174918186,0.04444376204359547,-44.6390463904639
0.0017591838941872207,0.014558281769226473,0.02025918037260049,0.006830478010558032,0.04340712404657222,0.044752276374820155,-44.4790447904479
0.0017918309284883926,0.01490615145468973,0.020330701682634247,0.006833559310615471,0.04386224337642784,0.045046496017194626,-44.3190431904319
0.0018241581202116202,0.015251850669306925,0.020395282348593998,0.006834992453878191,0.04430628359199073,0.045326111658204514,-44.159041590415896
0.0018561266095085736,0.015594848688255704,0.020452854713759985,0.006834776403041635,0.0447386064145659,0.04559082803930387,-43.99903999039989
0.00188769739619805,0.015934608295793202,0.020503358341957583,0.006832911314491996,0.04515857534844084,0.04584036447520885,-43.839038390383905
0.0019188314171139117,0.016270587131518976,0.020546740123279974,0.006829398538117573,0.04556555721003044,0.04607445534966571,-43.6790367903679
0.00194948962494935,0.016602239084289816,0.02058295436716046,0.006824240615680557,0.045958923692080184,0.046292850586467926,-43.5190351903519
0.0019796330683810714,0.01692901572902032,0.020611962882566236,0.006817441277752016,0.04633805295771964,0.04649531609455362,-43.3590335903359
0.0020092229732486897,0.017250367801291865,0.02063373504511649,0.006809005439215236,0.04670233125887228,0.04668163418607458,-43.199031990319895
0.002038220824557257,0.01756574670440437,0.020648247850959773,0.006798939193345026,0.04705115457326642,0.0468516039663919,-43.03903039030389
0.0020665884490642435,0.017874606043240066,0.020655485957277925,0.006787249804472939,0.04738393025405518,0.04700504169502026,-42.879028790287904
0.0020942880982065715,0.01817640317906994,0.020655441709316727,0.006773945699250804,0.04770007868584405,0.04714178111661324,-42.7190271902719
0.0021212825311184807,0.018470600799221838,0.02064811515387662,0.006759036456527261,0.04799903494074421,0.047261673761154935,-42.5590255902559
0.0021475350974871953,0.018756668495349432,0.020633514039230225,0.006742532795854321,0.048280250427921174,0.04736458921259937,-42.3990239902399
0.0021730098199904246,0.019034084343890364,0.020611653801466834,0.006724446564643254,0.04854319452999088,0.047450415345277094,-42.239022390223894
0.002197671476057906,0.019302336482186266,0.020582557537297593,0.006704790723991375,0.04878735621953314,0.047519058527469286,-42.07902079020789
0.002221485678698336,0.01956092467365454,0.020546255963388414,0.006683579333203426,0.04901224564894471,0.04757044379163177,-41.919019190191904
0.002244418956133252,0.01980936185535508,0.02050278736232088,0.006660827533033441,0.04921739570684265,0.04760451497083597,-41.7590175901759
0.002266438829980656,0.020047175661283702,0.020452197515314213,0.0066365515276750955,0.04940236353425367,0.04762123480107896,-41.5990159901599
0.0022875138917335513,0.020273909914750744,0.020394539621873795,0.0066107685655304544,0.04956673199388854,0.04762058498920198,-41.439014390143896
0.002307613877281897,0.02048912608326523,0.02032987420656369,0.00658349691878913,0.04971011108589995,0.04760256624624387,-41.279012790127894
0.002326709739230953,0.020692404689445817,0.02025826901313183,0.0065547558618516445,0.04983213930366025,0.047567198286144585,-41.11901119011189
0.002344773716774509,0.020883346671616145,0.02017979888624712,0.006524565648632699,0.04993248492327047,0.04751451978980181,-40.9590095900959
0.002361779402887981,0.021061574687916532,0.02009454564113745,0.0064929474887817085,0.05001084722072367,0.047444588334572595,-40.7990079900799
0.0023777018086139404,0.021226734357972586,0.020002597921446544,0.006459923522859724,0.05006695761089279,0.04735748028939988,-40.6390063900639
0.002392517424221177,0.02137849543640669,0.01990405104565508,0.006425516796513351,0.0501005807027963,0.047253290675831144,-40.479004790047895
0.0024062042770278706,0.021516552912755824,0.01979900684243878,0.006389751233687845,0.05011151526591032,0.04713213299528343,-40.31900319003189
0.0024187419856898803,0.021640628032670254,0.01968757347536129,0.006352651608922927,0.05009959510264435,0.046994139022994166,-40.15900159001589
0.0024301118107664496,0.02175046923560862,0.01956986525732437,0.0063142435187762275,0.050064689822475666,0.046839458569181425,-39.9989999899999
0.0024402967013877684,0.021845853004615275,0.019446002455220667,0.006274553352420404,0.05000670551364411,0.04666825920801963,-39.8389983899839
0.0024492813378617093,0.02192658462416226,0.01931611108525647,0.00623360826146126,0.04992558530874169,0.04648072597511703,-39.6789967899679
0.002457052170070753,0.021992498842459917,0.01918032269943142,0.00619143612902502,0.04982130984098711,0.0462770610342594,-39.518995189951895
0.002463597451524383,0.02204346043508282,0.019038774163681646,0.006148065538164045,0.04969389758845289,0.04605748331426012,-39.35899358993589
0.002468907268947174,0.022079364667220467,0.018891607428209417,0.006103525739630976,0.04954340510400803,0.04582222811682968,-39.19899198991989
0.002472973567298248,0.022100137652341034,0.018738969290538355,0.006057846619072076,0.049369927129249716,0.04557154669644774,-39.03899038990389
0.002475790170133715,0.022105736605549098,0.01858101115184714,0.006011058663691166,0.04917359659122112,0.04530570581328754,-38.8789887898879
0.0024773527952400465,0.02209614999042117,0.018417888767146933,0.00596319292843604,0.04895458448124419,0.04502498726030595,-38.718987189871896
0.002477659065482986,0.022071397558613932,0.018249761989878658,0.005914281001759748,0.04871309961573533,0.044729687365672496,-38.558985589855894
0.0024767085148335376,0.022031530282054606,0.018076794511514803,0.005864354971009344,0.048449388279412295,0.0444201164717665,-38.39898398983989
0.002474502589549633,0.02197663017803949,0.01789915359675805,0.005813447387494978,0.04816373375184216,0.04409659839202404,-38.23898238982389
0.002471044644509295,0.021906810028080512,0.017717009814934414,0.005761591231292332,0.047856455718816554,0.04375946984696445,-38.078980789807886
0.0024663399347083096,0.02182221299184895,0.017530536768182236,0.005708819875831363,0.047527909570570855,0.04340907988077012,-37.9189791897919
0.0024603956019525596,0.02172301211806578,0.017339910817040585,0.005655167052324223,0.04717848558938315,0.0430457892598329,-37.758977589775895
0.0024532206567922056,0.021609409754677816,0.017145310804041063,0.005600666814085121,0.04680860802959621,0.04266996985471637,-37.59897598975989
0.0024448259557616685,0.02148163686113325,0.01694691777590531,0.00554535350079442,0.04641873409359465,0.04228200400701292,-37.43897438974389
0.002435224174005897,0.02133995222602816,0.016744914704947843,0.005489261702759076,0.046009352807740975,0.041882283882602005,-37.27897278972789
0.0024244297733895213,0.02118464159383307,0.016539486210279033,0.005432426225220872,0.0455809838027225,0.041471210812837014,-37.118971189711885
0.0024124589662012134,0.021016016704823687,0.016330818279396756,0.005374882052763422,0.04513417600318508,0.04104919462520536,-36.9589695896959
0.0023993296745807463,0.020834414252729857,0.01611909799074723,0.005316664313868155,0.04466950623192599,0.040616652965018776,-36.798967989679895
0.002385061485810891,0.020640194764979854,0.015904513237826715,0.0052578082456688656,0.044187577734286325,0.040174010609699135,-36.63896638966389
0.00236967560363022,0.020433741410749925,0.015687252455383913,0.005198349158953364,0.04368901862871742,0.03972169877722705,-36.47896478964789
0.002353194795736212,0.02021545874233183,0.015467504348271597,0.005138322403460012,0.04317448028979965,0.03926015443032056,-36.31896318963189
0.002335643337660537,0.019985771375600335,0.015245457623481597,0.0050777633335158025,0.04264463567025827,0.03878981957790413,-36.158961589615885
0.0023170469532101247,0.019745122615598038,0.015021300725882598,0.005016707274061596,0.04210017756875236,0.03831114057541854,-35.998959989599896
0.002297432751678452,0.019493973033455046,0.014795221578163825,0.004955189487108894,0.04154181685040621,0.037824567425506654,-35.838958389583894
0.0022768291620414807,0.01923279900102536,0.014567407325470419,0.004893245138671415,0.04097028062720867,0.03733055308059221,-35.67895678956789
0.0022552658643616046,0.018962091189748554,0.01433804408519741,0.004830909266213242,0.040386310405520806,0.036829552748844016,-35.51895518955189
0.0022327737186310865,0.018682353040336365,0.014107316702390047,0.004768216746654103,0.0397906602080116,0.03632202320499187,-35.358953589535886
0.0022093846912934283,0.018394099209936437,0.01387540851117737,0.00470520226497082,0.03918409467737805,0.03580842210742886,-35.198951989519884
0.0021851317796871728,0.01809785400344182,0.0136425011026447,0.004641900283432502,0.0385673871692062,0.03528920732299969,-35.038950389503896
0.0021600489346615443,0.01779414979559418,0.013408774099528285,0.004578345011505468,0.03794131784128948,0.03476483626083631,-34.87894878948789
0.00213417098161732,0.017483525450472864,0.01317440493809285,0.004514570376462384,0.03730667174664542,0.034235765216560445,-34.71894718947189
0.0021075335402290607,0.017166524744869516,0.012939568657528547,0.004450609994728341,0.03666423693735547,0.03370244872812666,-34.55894558945589
0.0020801729431067107,0.016843694801923683,0.012704437697180358,0.00438649714399499,0.03601480258620574,0.03316533894453232,-34.398943989439886
0.0020521261536552205,0.016515584541236063,0.012469181701898098,0.004322264736132141,0.03535915713292152,0.03262488500856937,-34.23894238942388
0.0020234306833905617,0.016182743151487513,0.012233967335770285,0.004257945290924445,0.034698086461572804,0.03208153245473895,-34.078940789407895
0.001994124508969075,0.015845718591372984,0.011998958104479762,0.004193570910658987,0.03403237211548081,0.03153572262339426,-33.91893918939189
0.001964245989184797,0.015505056124414426,0.01176431418649406,0.004129173255587929,0.03336278955568121,0.030987892092118895,-33.75893758937589
0.0019338337821859016,0.015161296892944235,0.011530192273276993,0.0040647835202883365,0.03269010646869547,0.030438472125286727,-33.59893598935989
0.0019029267631571675,0.01481497653625712,0.011296745418683318,0.004000432410939643,0.03201508112903725,0.02988788814268877,-33.438934389343885
0.0018715639427100265,0.014466623857612007,0.011064122897672094,0.003936150123537288,0.03133846082153142,0.029336559208048122,-33.27893278932788
0.0018397843862156089,0.014116759544431381,0.010832470074449319,0.003871966323059231,0.03066098032815554,0.028784897538179637,-33.118931189311894
0.0018076271343091652,0.01376589494569481,0.010601928280124698,0.003807910123600121,0.029983360483728794,0.028233308033484873,-32.95892958929589
0.0017751311247864484,0.013414530910159587,0.010372634699943243,0.0037440100694862057,0.029306306804375487,0.027682187830407455,-32.79892798927989
0.0017423351161039813,0.013063156688665187,0.010144722270126711,0.003680294117381986,0.028630508192277866,0.02713192587640478,-32.63892638926389
0.0017092776126859184,0.01271224890339513,0.009918319584336595,0.003616789619397954,0.0279566357198156,0.026582902527926576,-32.478924789247884
0.0016759967922302214,0.012362270586579228,0.009693550809746182,0.0035535233072068783,0.02728534149576251,0.02603548917182198,-32.31892318923188
0.0016425304351963266,0.012013670290725944,0.009470535612686145,0.0034905212771742236,0.02661725761578264,0.025490047870529605,-32.15892158921589
0.0016089158566454063,0.011666881272079684,0.009249389093805425,0.00342780897650657,0.02595299519903709,0.0249469310313377,-31.99891998919989
0.0015751898405928057,0.011322320748605414,0.0090302217326677,0.00336541119042013,0.02529314351228605,0.02440648109993569,-31.83891838918389
0.001541388577020175,0.010980389233412487,0.008813139341681773,0.0033033520303296176,0.02463826918244405,0.023869030278410662,-31.678916789167886
0.0015075476016825884,0.010641469944147311,0.008598243029244614,0.0032416549230561468,0.023988915498130658,0.023334900267779443,-31.518915189151883
0.0014737017388332648,0.010305928288508685,0.00838562917195565,0.003180342601051053,0.02334560180034865,0.022804402035081408,-31.35891358913588
0.00143988504697568,0.009974111425674984,0.008175389395742402,0.0031194370936309546,0.02270882296202402,0.022277835604995664,-31.198911989119892
0.0014061307677398264,0.009646347903079317,0.007967610565719492,0.00305895971921768,0.022079048955756318,0.02175548987588423,-31.03891038910389
0.0013724712779663343,0.009322947367630683,0.007762374784586619,0.0029989310785752963,0.02145672450875893,0.021237642460104678,-30.878908789087887
0.0013389380450688955,0.009004200350154732,0.00755975939935437,0.002939371049034699,0.020842268843612698,0.02072455954837636,-30.718907189071885
0.0013055615857324177,0.008690378121522627,0.007359837016172554,0.0028802987796950072,0.020236075503122605,0.020216495797930355,-30.558905589055883
0.0012723714279911991,0.008381732618647888,0.007162675523021226,0.0028217326875894237,0.019638512257249736,0.019713694244118493,-30.39890398903988
0.0012393960767185343,0.00807849643826297,0.006968338120011983,0.002763690454801924,0.01904992108979541,0.019216386235106134,-30.23890238902389
0.0012066629825463896,0.007780882896139076,0.006776883357034891,0.002706189026519761,0.018470618262240116,0.018724791389223627,-30.07890078900789
0.0011741985142213645,0.007489086149186481,0.006588365178476033,0.002649244610005635,0.017900894451889512,0.01823911757450592,-29.918899188991887
0.0011420279343908669,0.007203281377666967,0.0064028329747202435,0.002592872674471974,0.01734101496125005,0.017759560909903906,-29.758897588975884
0.0011101753788016493,0.0069236250245681575,0.006220331640145481,0.0025370879518388204,0.016791219995354108,0.017286305787611363,-29.59889598895988
0.0010786638388813516,0.006650255089029249,0.006040901637307224,0.00248190443835562,0.016251725003573445,0.016819524915911318,-29.43889438894388
0.0010475151476626403,0.0063832914705705575,0.005864579067004802,0.002427335397066201,0.0157227210823042,0.01635937938191003,-29.278892788927877
0.0010167499689989743,0.006122836360764815,0.005691395743916014,0.002373393361095304,0.015204375434775107,0.015906018733493264,-29.11889118891189
0.0009863877900109122,0.0058689746788962395,0.005521379277481671,0.0023200901377340337,0.014696831884122855,0.015459581079808868,-28.958889588895886
0.0009564469166923841,0.005621774548083995,0.005354553157718526,0.002267436813300913,0.01420021143579582,0.015020193209552547,-28.798887988879883
0.0009269444725972611,0.005381287808298089,0.005190936845636026,0.0022154437587542505,0.013714612885285627,0.014587970726307669,-28.63888638886388
0.0008978964005182382,0.00514755056266973,0.005030545867931174,0.0021641206360309704,0.013240113467150112,0.014163018200169079,-28.47888478884788
0.0008693174670621779,0.004920583753491339,0.0048733919156350326,0.0021134764050863455,0.012776769541274895,0.013745429334860997,-28.318883188831876
0.0008412212700188932,0.004700393764314995,0.004719482946384653,0.0020635193316084857,0.012324617312327027,0.01333528714954292,-28.158881588815888
0.000813620248413774,0.00448697304458992,0.0045688232899954665,0.00201425699538089,0.011883673578380051,0.012932664174483514,-27.998879988799885
0.0007865256951287952,0.004280300753329874,0.004421413757011471,0.0019656962992660046,0.011453936504736143,0.012537622659772518,-27.838878388783883
0.0007599477719710951,0.004080343418366973,0.0042772517499129565,0.001917843478782175,0.0110353864190332,0.012150214796231061,-27.67887678876788
0.0007338955270637862,0.0038870556078312037,0.004136331376665748,0.0018707041122461902,0.010627986623806929,0.011770482947676754,-27.518875188751878
0.0007083769144296465,0.003700380610590617,0.003998643566300102,0.0018242831314532581,0.010231684222773624,0.011398459893696162,-27.358873588735875
0.000683398815635042,0.003520251122496792,0.0038641761862126638,0.0017785848328660792,0.009846410957210576,0.011034169082077137,-27.198871988719887
0.0006589670633587477,0.0033465899354010765,0.0037329141608906714,0.0017336128892844623,0.009472084048934959,0.010677624890055394,-27.038870388703884
0.0006350864667483278,0.003179310626039215,0.0036048395917643973,0.001689370361966969,0.00910860704651891,0.010328832893534666,-26.878868788687882
0.0006117608384252421,0.00301831824202226,0.003479931877900406,0.0016458597131758315,0.00875587067152374,0.00998779014344553,-26.71886718867188
0.000588993022999106,0.002863509982321128,0.0033581678372564035,0.0016030828191165936,0.008413753661693231,0.009654485448417797,-26.558865588655877
0.0005667849269512311,0.0027147758697872617,0.003239521828226269,0.00156104098324388,0.008082123608208642,0.009328899662951853,-26.398863988639874
0.0005451375497479494,0.0025719994134129343,0.003123965871212707,0.0015197349499048675,0.007760837784278459,0.009011005980287328,-26.238862388623886
0.0005240510160450525,0.0024350582581996387,0.0030114697699738673,0.001479164918292156,0.007449743962510714,0.00870077022918225,-26.078860788607884
0.0005035246088461326,0.0023038248206712062,0.002902001232499982,0.0014393305566780751,0.0071486812186953965,0.008398151173832863,-25.91885918859188
0.0004835568034794188,0.002178166908237647,0.0027955259911855534,0.0014002310169025497,0.006857480719805169,0.008103100816181565,-25.75885758857588
0.0004641453022601261,0.0020579483207865948,0.0026920079220730184,0.0013618649490871387,0.0065759664942068785,0.007815564699881206,-25.598855988559876
0.00044528706970808327,0.0019430294330489034,0.0025914091629540255,0.0013242305165481253,0.006303956182259138,0.007535482215204579,-25.438854388543874
0.0004269783681936239,0.0018332677564537369,0.0024936902301250442,0.0012873254108819506,0.006041261765654355,0.007262786904210487,-25.278852788527885
0.00040921479388828327,0.0017285184793547298,0.002398810133604792,0.0012511468671967366,0.005787690274044542,0.006997406765501536,-25.118851188511883
0.00039199131290080505,0.0016286349846719988,0.0023067264906319403,0.0012156916794641532,0.005543044467668897,0.006739264557933686,-24.95884958849588
0.0003753022974831467,0.0015334693441536134,0.002217395637272315,0.0011809562159663038,0.005307123494875379,0.006488278102662687,-24.798847988479878
0.0003591415621957476,0.0014428727886148093,0.0021307727379760747,0.001146936434812971,0.0050797235235996024,0.006244360582939778,-24.638846388463875
0.0003435023999260686,0.0013566961536619336,0.0020468118929363173,0.0011136278995050601,0.004860638346029379,0.006007420841095746,-24.478844788447873
0.0003283776176594191,0.001274790300551241,0.0019654662431115586,0.0010810257945207292,0.004649659955842948,0.0057773636721804396,-24.318843188431885
0.00031375957190625677,0.0011970065119690275,0.0018866880727856164,0.001049124940901292,0.004446579097562193,0.005554090113753032,-24.158841588415882
0.00029964020369551694,0.0011231968626493785,0.0018104289095493364,0.0010179198118147241,0.0042511857877089556,0.005337497731347412,-23.99883998839988
0.00028601107304894674,0.0010532145648677624,0.0017366396215993088,0.0009874045480751659,0.004063269807591184,0.005127480899165313,-23.838838388383877
0.00027286339285702657,0.0009869142889637407,0.0016652705122595342,0.0009575729735976297,0.0038826211676779316,0.0049239310755796835,-23.678836788367875
0.00026018806208267007,0.0009241524591527208,0.0015962714116423726,0.0009284186107677997,0.003709030543645563,0.004726737073059603,-23.518835188351872
0.00024797569822456464,0.0008647875249857148,0.0015295917653755393,0.0008999346957075412,0.00354228968429336,0.004535785322157254,-23.358833588335884
0.0002362166689776976,0.0008086802089068339,0.0014651807203318252,0.0008721141934175175,0.0033821917916338744,0.00435096012922656,-23.19883198831988
0.00022490112303429508,0.0007556937304411199,0.0014029872073083294,0.0008449498127790838,0.003228531873562828,0.004172143927572146,-23.03883038830388
0.00021401901997399828,0.0007056940076197735,0.0013429600206112651,0.000818434021398374,0.003081107069603411,0.003999217521755378,-22.878828788287876
0.00020356015919770733,0.0006585498363166515,0.0012850478945119796,0.0007925590602763164,0.002939716950302655,0.003832060324812862,-22.718827188271874
0.00019351420786498024,0.000614133048228547,0.001229199576548701,0.0007673169582890941,0.0028041637909313223,0.003670550588170331,-22.55882558825587
0.00018387072780027232,0.0005723186482827741,0.0011753638976572424,0.0007426995464643833,0.002674252820204672,0.0035145656240620207,-22.398823988239883
0.0001746192013385439,0.0005329849322990346,0.0011234898391222945,0.0007186984720394534,0.0025497924447993262,0.0033639820202923253,-22.23882238822388
0.0001657490560859045,0.0004960135857687953,0.0010735265963489875,0.0006953052122881036,0.002430594450491791,0.0032186758472026395,-22.078820788207878
0.00015724968857589182,0.0004612897646444161,0.0010254236394620104,0.0006725110881041074,0.002316474180786426,0.0030785228567311858,-21.918819188191875
0.00014911048680680647,0.00042870215905285925,0.000979130770747,0.0006503072773297296,0.0022072506939363953,0.002943398673478607,-21.758817588175873
0.0001413208516501084,0.00039814304086477977,0.000934598178955845,0.0006286848278186147,0.002102746899289348,0.0028131789777155417,-21.59881598815987
0.00013387021712430854,0.0003695082960598207,0.0008917764905041188,0.0006076346702231639,0.002002789673911412,0.002687739680291366,-21.438814388143882
0.00012674806953298333,0.00034269744283325145,0.000850616817595113,0.0005871476304972923,0.0019072099604586401,0.00256695708942523,-21.27881278812788
0.00011994396546955839,0.00031761363638815486,0.0008110708033108183,0.0005672144421062416,0.0018158428472747731,0.002450708069381814,-21.118811188111877
0.00011344754869525769,0.0002941636613513508,0.0007730906637155707,0.0005478257579358617,0.0017285276316980408,0.002338870191054008,-20.958809588095875
0.00010724856590018979,0.0002722579127408956,0.0007366292270233044,0.0005289721618945657,0.0016451078675589555,0.002231321874494285,-20.798807988079872
0.00010133688136085868,0.0002518103663983325,0.0007016399698839612,0.0005106441802018716,0.001565431397845024,0.0021279425234545023,-20.63880638806387
9.570249051047883e-05,0.0002327385397805244,0.0006680770508490466,0.0004928322923581917,0.0014893503734982414,0.0020286126520112006,-20.47880478804788
9.033553244133804e-05,0.0002149634439841459,0.000635895341080196,0.00047552694179121835,0.0014167212592968983,0.001933214003369563,-20.31880318803188
8.522630136108803e-05,0.00019840952785122194,0.0006050504523683758,0.0004587185461750022,0.001347404827755688,0.0018416296609546114,-20.158801588015876
8.036525702722285e-05,0.0001830046149766683,0.0005754987625344162,0.00044239750741842176,0.001281266141956729,0.0017537441519120582,-19.998799987999874
7.574303418619748e-05,0.00016867983440923645,0.0005471974382846527,0.00042655422132047594,0.0012181745282005625,0.001669443543154752,-19.83879838798387
7.135045104556383e-05,0.00015536954580569018,0.0005201044555979156,0.00041117908689044505,0.0011580035393396145,0.0015886155301026248,-19.67879678796787
6.717851680923504e-05,0.000143011259764923,0.0004941786177223545,0.0003962625153315844,0.0011006309096280968,0.001511149518275247,-19.518795187951866
6.3218438307488e-05,0.00013154555403435336,0.00046937957086252735,0.0003817949386876356,0.0010459385018920042,0.001436936697906334,-19.358793587935878
5.946162575460754e-05,0.00012091598624556978,0.0004456678176387075,0.00036776681815201565,0.0009938122477909004,0.0013658701117586522,-19.198791987919876
5.589969766817395e-05,0.00011106900380021065,0.000423004728401741,0.00035416865204012087,0.0009441420819102464,0.001297844716326253,-19.038790387903873
5.2524484984873314e-05,0.00010195385149058811,0.0004013525504876644,0.0003409909834257013,0.0008968218703888271,0.001232757436617943,-18.87878878788787
4.932803440842461e-05,9.35224774030178e-05,0.0003806744154971174,0.0003282244074428068,0.0008517493347513667,0.0011705072147226514,-18.718787187871868
4.63026110257326e-05,8.572943761527584e-05,0.00036093434468494664,0.00031585957825529937,0.0008088259715812545,0.0011109950523626685,-18.558785587855866
4.34407002277224e-05,7.853180016336634e-05,0.0003420972525456281,0.0003038872156963917,0.0007679569686331086,0.0010541240476454959,-18.398783987839877
4.073500897149558e-05,7.188904871701728e-05,0.0003241289486800452,0.0002922981115811347,0.0007290511179496927,0.000999799426228782,-18.238782387823875
3.817846642047803e-05,6.576298636820979e-05,0.00030699613802890496,0.0002810831356952255,0.0006920207265128182,0.0009479285671160121,-18.078780787807872
3.576422399910475e-05,6.011763990269754e-05,0.00029066641955751836,0.00027023324146387416,0.0006567815249231948,0.0008984210233026421,-17.91877918779187
3.348565489834031e-05,5.49191648911127e-05,0.0002751082834759917,0.00025973947130490037,0.000623252574570345,0.0008511885374941195,-17.758777587775867
3.1336353067947206e-05,5.0135751903902924e-05,0.0002602911070779565,0.0002495929616705696,0.0005913561737203762,0.0008061450531178678,-17.598775987759865
2.9310131730919174e-05,4.573753412317107e-05,0.00024618514927986115,0.00023978494778302531,0.0005610177629169767,0.000763206720851551,-17.438774387743877
2.740102145488728e-05,4.169649659454922e-05,0.00023276154394161154,0.0002303067680684879,0.000532165830059536,0.0007222919008893521,-17.278772787727874
2.5603267814608488e-05,3.798638733362022e-05,0.00021999229204793094,0.0002211498682957123,0.000504731815491872,0.000683321161167,-17.11877118771187
2.3911328678846345e-05,3.458263047412568e-05,0.00020785025282824002,0.00021230580542442852,0.0004786500174056406,0.000646217271764472,-16.95876958769587
2.231987115408831e-05,3.1462241619360686e-05,0.00019630913389120426,0.0002037662511697858,0.00045385749783443904,0.0006109051957031967,-16.798767987679867
2.0823768216597246e-05,2.8603745533733676e-05,0.00018534348044827093,0.00019552299528902557,0.0004302939894876274,0.0005773120763518408,-16.638766387663864
1.94180950632933e-05,2.5987096288507797e-05,0.00017492866369863552,0.00018756794859683474,0.00040790180364727135,0.0005453672216515967,-16.478764787647876
1.8098125210901945e-05,2.359359995423691e-05,0.0001650408684460545,0.00017989314571600603,0.0003866257393271994,0.0005150020853682833,-16.318763187631873
1.6859326371705936e-05,2.1405839912365372e-05,0.00015565708001587895,0.00017249074757022355,0.0003664129938701738,0.0004861502455746486,-16.15876158761587
1.569735613309418e-05,1.9407604839844187e-05,0.00014675507053848262,0.00016535304362591947,0.00034721307513734044,0.0004587473805618202,-15.998759987599868
1.4608057466935381e-05,1.7583819403437054e-05,0.00013831338466309574,0.00015847245389029508,0.00032897771542376325,0.00043273124237428124,-15.838758387583866
1.3587454093611045e-05,1.5920477684587493e-05,0.00013031132476376065,0.00015184153067270497,0.0003116607872146642,0.0004080416281577469,-15.678756787567863
1.2631745724334822e-05,1.4404579341276837e-05,0.00012272893569684044,0.00014545296011669986,0.00029521822087915197,0.0003846203495040966,-15.518755187551875
1.1737303204168735e-05,1.3024068500173401e-05,0.0001155469891671668,0.00013929956351009607,0.000279607924381605,0.0003624111999720809,-15.358753587535872
1.0900663576928099e-05,1.176777536051577e-05,0.00010874696775757294,0.000133374298380509,0.0002647897050755258,0.0003413599209569144,-15.19875198751987
1.0118525091946375e-05,1.0625360480526286e-05,0.00010231104867416968,0.00012767025938381323,0.00025072519363045556,0.0003214141660759792,-15.038750387503868
9.387742171464219e-06,9.587261707679143e-06,9.622208725736225e-05,0.00012218067899304075,0.00023737777012954636,0.00030252346423198967,-14.878748787487865
8.705320356206912e-06,8.644643705778155e-06,9.046360030623059e-05,0.00011689892799522058,0.00022471249236343622,0.0002846391815088671,-14.718747187471863
8.068411245534405e-06,7.789350024485993e-06,8.501974926152706e-05,0.0001118185158036748,0.00021269602633522226,0.00026771448204942485,-14.558745587455874
7.474307447386391e-06,7.013857650625127e-06,7.987532329020257e-05,0.00010693309059325778,0.00020129657898147188,0.0002517042880577513,-14.398743987439872
6.920437552110578e-06,6.311233975185773e-06,7.501572231205222e-05,0.00010223643926600748,0.00019048383310535605,0.00023656523906294863,-14.23874238742387
6.404361143151273e-06,5.6750961054606045e-06,7.042694000676163e-05,9.772248725461685e-05,0.00018022888450999037,0.00022225565057456216,-14.078740787407867
5.9237638564991016e-06,5.099572448030369e-06,6.609554683738573e-05,9.338529817109739e-05,0.0001705041813130126,0.00020873547225382409,-13.918739187391864
