1-Feng 1996,4-Sakakibara 1992,5-Sakakibara 1993,6-Schneider 1994,sum,gauss,x
4.8260229897821234e-06,1.0484852441911465e-13,8.528934601716309e-08,7.979597901504236e-47,4.911312440647811e-06,5.384938791833169e-07,-140.0
5.0279421967753205e-06,1.2671955784308366e-13,9.368262523873606e-08,1.2928419177590787e-46,5.121624948733614e-06,5.837826886264224e-07,-139.839998399984
5.237543212344468e-06,1.5304762018774182e-13,1.0286560331837321e-07,2.092216053695267e-46,5.340408968710462e-06,6.326967740282746e-07,-139.679996799968
5.455083657409539e-06,1.8471880866459305e-13,1.1290889579304599e-07,3.381927736493462e-46,5.567992737921393e-06,6.855103155694564e-07,-139.519995199952
5.680828315509025e-06,2.2279080512971231e-13,1.2388907205610963e-07,5.460328925404667e-46,5.80471761035594e-06,7.42516887294523e-07,-139.359993599936
5.915049272129184e-06,2.6852517788659887e-13,1.3588912343025356e-07,8.805823461594735e-46,6.050938664084615e-06,8.040307210881806e-07,-139.19999199992
6.158026054358407e-06,3.2342558244921654e-13,1.4899896498140898e-07,1.418462412632126e-45,6.307025342765398e-06,8.703880447500313e-07,-139.03999039990399
6.410045770754005e-06,3.892829035599975e-13,1.6331597324209484e-07,2.2822455957202505e-45,6.5733621332790035e-06,9.419484979039742e-07,-138.879988799888
6.6714032513059765e-06,4.682285583794176e-13,1.7894556213038518e-07,3.6677828145404366e-45,6.850349281664921e-06,1.0190966296244584e-06,-138.719987199872
6.9424011873754e-06,5.627973874637202e-13,1.960017994727932e-07,5.887643874220198e-45,7.138403549645581e-06,1.1022434818094527e-06,-138.559985599856
7.22335027148152e-06,6.76001800477315e-13,2.1460806666633868e-07,9.44009017149651e-45,7.437959014149659e-06,1.191828262481075e-06,-138.39998399984
7.5145693368065725e-06,8.114191227725227e-13,2.3489776414668557e-07,1.511845600505562e-44,7.74946791237238e-06,1.2883201133478618e-06,-138.239982399824
7.816385496280828e-06,9.73294413007715e-13,2.570150654654358e-07,2.418440606917714e-44,8.073401535040676e-06,1.3922199761172904e-06,-138.079980799808
8.129134281107756e-06,1.1666613977431932e-12,2.8111572292089646e-07,3.864204484007079e-44,8.41025117069005e-06,1.5040625622047597e-06,-137.919979199792
8.45315977858151e-06,1.3974846043208426e-12,3.073679278321799e-07,6.167106694380193e-44,8.760529103898294e-06,1.6244184306429418e-06,-137.759977599776
8.78881476904534e-06,1.6728262773088068e-12,3.3595322869698423e-07,9.83104110545486e-44,9.124769670568601e-06,1.7538961791555136e-06,-137.59997599976
9.136460861834543e-06,2.001042246667428e-12,3.670675106284446e-07,1.5653600647500033e-43,9.503530373505236e-06,1.8931447535199272e-06,-137.439974399744
9.496468630040505e-06,2.3920115893161576e-12,4.0092203962573845e-07,2.4895776472416184e-43,9.897393061677833e-06,2.0428558805042103e-06,-137.279972799728
9.869217743929885e-06,2.857405703362029e-12,4.3774457539733937e-07,3.954884366738336e-43,1.0306965176732927e-05,2.203766629825346e-06,-137.11997119971198
1.025509710284481e-05,3.4110033111480458e-12,4.777805566236627e-07,6.27535923510629e-43,1.0732881070471784e-05,2.3766621107358828e-06,-136.959969599696
1.0654504965407816e-05,4.069058940886893e-12,5.212943627184688e-07,9.945808258354358e-43,1.1175803397185227e-05,2.5623783090076887e-06,-136.79996799968
1.1067849077846958e-05,4.850733626706565e-12,5.685706563243224e-07,1.5744840323180786e-42,1.1636424584904907e-05,2.761805070238886e-06,-136.639966399664
1.1495546800253441e-05,5.778597935905543e-12,6.199158109574788e-07,2.4896203592877415e-42,1.2115468389808855e-05,2.975889235567926e-06,-136.479964799648
1.1938025230579036e-05,6.879219005553696e-12,6.756594284009958e-07,3.9321011497903594e-42,1.2613691538199039e-05,3.2056379360343953e-06,-136.31996319963199
1.2395721326172655e-05,8.183845077131331e-12,7.361559506310631e-07,6.203159147110664e-42,1.3131885460648797e-05,3.4521220519759196e-06,-136.159961599616
1.2869082022654847e-05,9.729203090367182e-12,8.017863712513258e-07,9.77457433805057e-42,1.3670878123109262e-05,3.7164798440014155e-06,-135.9999599996
1.335856434991912e-05,1.155842727273684e-11,8.72960051601236e-07,1.538436135684866e-41,1.4231535959947628e-05,3.999920762222716e-06,-135.839958399584
1.3864635545047121e-05,1.3722139380985384e-11,9.501166468985917e-07,2.418565083837298e-41,1.4814765914085094e-05,4.303729440566967e-06,-135.679956799568
1.4387773161919881e-05,1.6279704362637032e-11,1.033728147971842e-06,3.797805974046632e-41,1.5421517589596085e-05,4.629269883125653e-06,-135.519955199552
1.4928465177298826e-05,1.9300688761825625e-11,1.1243010443336143e-06,5.956682550832098e-41,1.6052785522321202e-05,4.977989849621237e-06,-135.359953599536
1.5487210093151127e-05,2.2866553254766173e-11,1.2223786145446914e-06,9.331959095485698e-41,1.6709611574249073e-05,5.351425447194444e-06,-135.19995199951998
1.606451703498313e-05,2.7072615332939428e-11,1.3285433500134771e-06,1.4602858775212033e-40,1.739308745761194e-05,5.751205935823121e-06,-135.039950399504
1.6660905845946623e-05,3.203032343222602e-11,1.4434195185731058e-06,2.282441377370228e-40,1.810435739484316e-05,6.179058754789073e-06,-134.879948799488
1.7276907176473622e-05,3.78698898184531e-11,1.5676758743719745e-06,3.563346593339269e-40,1.8844620920735416e-05,6.636814777697518e-06,-134.719947199472
1.7913062569193407e-05,4.474333637920833e-11,1.7020285208062683e-06,5.556651879600922e-40,1.9615135833336056e-05,7.126413803636677e-06,-134.559945599456
1.8569924538882065e-05,5.282801524465836e-11,1.8472439334125814e-06,8.654958707702657e-40,2.041722130030989e-05,7.64991029213339e-06,-134.39994399943998
1.9248056647186852e-05,6.233067498535871e-11,2.0041421498229348e-06,1.3465221414570384e-39,2.1252261127684772e-05,8.209479349613006e-06,-134.239942399424
1.9948033571869032e-05,7.349215314566807e-11,2.1736001340663706e-06,2.0924673300501905e-39,2.212170719808855e-05,8.807422975116446e-06,-134.079940799408
2.0670441170300074e-05,8.659278721532306e-11,2.356555322674027e-06,3.247884383033905e-39,2.3027083085761315e-05,9.446176573048094e-06,-133.919939199392
2.14158765369454e-05,1.0195864898435439e-10,2.554009360213056e-06,5.0354596936327355e-39,2.3969987855807443e-05,1.0128315740738402e-05,-133.759937599376
2.2184948054566865e-05,1.1996872175142302e-10,2.7670320320338166e-06,7.797840990954238e-39,2.4952100055322433e-05,1.0856563338595914e-05,-133.59993599935999
2.2978275438868056e-05,1.4106315626696943e-10,2.9967654021634993e-06,1.206163866927504e-38,2.5975181904187823e-05,1.1633796850589326e-05,-133.439934399344
2.3796489776309475e-05,1.657527598173278e-10,3.244428164420021e-06,1.8635237896546833e-38,2.7041083693489314e-05,1.2463056042757275e-05,-133.27993279932798
2.4640233554810787e-05,1.946298937449066e-10,3.511320214945006e-06,2.8758104433642506e-38,2.8151748399649536e-05,1.3347550927361323e-05,-133.119931199312
2.551016068706234e-05,2.2838097823166498e-10,3.7988274544704216e-06,4.4328420789548463e-38,2.9309216522510994e-05,1.4290670040212786e-05,-132.959929599296
2.640693652615863e-05,2.678008296552677e-10,4.108426828729714e-06,6.824973210405818e-38,3.0515631155718e-05,1.5295989038572864e-05,-132.79992799928
2.7331237873268835e-05,3.138090856000717e-10,4.441691615507663e-06,1.049581894269387e-37,3.17732432978621e-05,1.6367279626883715e-05,-132.639926399264
2.828375297705794e-05,3.674690060426335e-10,4.800296966887217e-06,1.612235195583287e-37,3.30844174129512e-05,1.7508518817414868e-05,-132.47992479924798
2.926518152456526e-05,4.300089767464084e-10,5.186025715293342e-06,2.473643748145746e-37,3.445163724883535e-05,1.8723898532695575e-05,-132.319923199232
3.0276234623254523e-05,5.028470829471975e-10,5.6007744519596015e-06,3.790902341327244e-37,3.587751192229707e-05,2.001783555638127e-05,-132.159921599216
3.1317634773938855e-05,5.876191684869741e-10,6.046559886438199e-06,5.802895210299087e-37,3.736478227954554e-05,2.1394981838921755e-05,-131.9999199992
3.2390115834291296e-05,6.86210848206775e-10,6.525525495750402e-06,8.872449734835204e-37,3.891632754088991e-05,2.2860235164103913e-05,-131.839918399184
3.349442297264867e-05,8.007940002373306e-10,7.039948471719738e-06,1.3549992511792078e-36,4.0535172238368645e-05,2.4418750182206122e-05,-131.67991679916798
3.463131261181247e-05,9.338683304826899e-10,7.592246974944894e-06,2.0669560908437086e-36,4.222449345508785e-05,2.6075949815116495e-05,-131.519915199152
3.580155236256019e-05,1.0883086747943258e-09,8.184987703758818e-06,3.149344244341879e-36,4.39876283749938e-05,2.7837537038369373e-05,-131.35991359913598
3.700592094656867e-05,1.2674187858558457e-09,8.820893786367031e-06,4.7929809872368e-36,4.582808215172155e-05,2.9709507044583735e-05,-131.19991199912
3.8245208108466173e-05,1.4749924424943836e-09,9.502853004179498e-06,7.285979852969882e-36,4.7749536105088165e-05,3.169815979231066e-05,-131.039910399104
3.9520214516718815e-05,1.7153828199194397e-09,1.023392635412404e-05,1.106284719639376e-35,4.9755856253662775e-05,3.381011294374056e-05,-130.87990879908799
4.083175165306542e-05,1.993581171267544e-09,1.1017356957469825e-05,1.677809115864541e-35,5.1851102191706515e-05,3.605231519415085e-05,-130.719907199072
4.2180641690220246e-05,2.315305994881559e-09,1.1856579322386249e-05,2.541644897426993e-35,5.4039536318601375e-05,3.843205999534528e-05,-130.55990559905598
4.356771735755346e-05,2.687103999144018e-09,1.2755228967108208e-05,3.84577512045925e-35,5.632563342866081e-05,4.095699967464552e-05,-130.39990399904
4.499382179447949e-05,3.116464328685044e-09,1.3717152410191183e-05,5.812320922620438e-35,5.871409066899936e-05,4.3635159950294815e-05,-130.239902399024
4.645980839127082e-05,3.6119476837453126e-09,1.4746417533885281e-05,8.774289784271202e-35,6.120983787283984e-05,4.647495484333271e-05,-130.079900799008
4.7966540617027925e-05,4.183332149867188e-09,1.5847324326166898e-05,1.3230341357742423e-34,6.381804827534469e-05,4.948520198518832e-05,-129.919899198992
4.951489183454235e-05,4.841777759474593e-09,1.7024416006415353e-05,1.992630684557677e-34,6.654414961871717e-05,5.2675138319364066e-05,-129.75989759897598
5.110574510178331e-05,5.600012031961985e-09,1.828249053910988e-05,2.997638554882332e-34,6.939383565292514e-05,5.605443619462698e-05,-129.59989599896
5.2739992959759464e-05,6.472538986454122e-09,1.9626612539266357e-05,4.504311387839003e-34,7.237307803801228e-05,5.9633219846170236e-05,-129.43989439894398
5.441853720649773e-05,7.47587439331304e-09,2.106212557259672e-05,6.76042866241617e-34,7.548813865348776e-05,6.342208226012824e-05,-129.279892798928
5.614228865690143e-05,8.628810328822397e-09,2.2594664852597887e-05,1.0134836589521385e-33,7.874558231982813e-05,6.743210241576755e-05,-129.119891198912
5.7912166888245245e-05,9.952712424403758e-09,2.423017033591224e-05,1.5175952376275129e-33,8.215228993658189e-05,7.167486289848447e-05,-128.95988959889598
5.972909997107839e-05,1.147185355953068e-08,2.597490021639035e-05,2.2698222423090072e-33,8.571547204102827e-05,7.616246787555047e-05,-128.79988799888
6.159402418531699e-05,1.3213788138610285e-08,2.7835444817299074e-05,3.390973749895846e-33,8.944268279075468e-05,8.090756142527765e-05,-128.63988639886398
6.350788372130515e-05,1.5209771519032844e-08,2.981874088005023e-05,5.0600370445334376e-33,9.334183437287441e-05,8.592334620891636e-05,-128.479884798848
6.547163036564778e-05,1.7495229623063492e-08,3.1932086246710896e-05,7.541880605108566e-33,9.742121184198174e-05,9.122360247326163e-05,-128.31988319883197
6.748622317161099e-05,2.0110284273004113e-08,3.418315493233454e-05,1.1227997245267809e-32,0.00010168948838821853,9.682270737044213e-05,-128.15988159881599
6.955262811391444e-05,2.31003403400886e-08,3.658001258189436e-05,1.6696353456138622e-32,0.0001061557410361489,0.00010273565457991807,-127.99987999879998
7.167181772772997e-05,2.6516741395849336e-08,3.9131132305225114e-05,2.4799198833756846e-32,0.00011082946677435093,0.00010897807421610678,-127.83987839878398
7.384477073173076e-05,3.041750120343858e-08,4.184541088196926e-05,3.6791742700237844e-32,0.00011572059911490345,0.00011556625300347375,-127.67987679876799
7.607247163503585e-05,3.486811908879887e-08,4.473218532700131e-05,5.452049072091909e-32,0.00012083952508112596,0.0001225171546992376,-127.51987519875199
7.835591032790635e-05,3.994248799101721e-08,4.780124980522341e-05,8.069857035916177e-32,0.0001261971026211208,0.00012984844074210658,-127.35987359873599
8.069608165607143e-05,4.5723904811119547e-08,5.106287288296343e-05,1.1930773852497872e-31,0.00013180467844384598,0.00013757849110370291,-127.19987199871998
8.309398497856457e-05,5.230619356238183e-08,5.452781510146112e-05,1.761846526723587e-31,0.00013767410627358808,0.00014572642531747782,-127.03987039870398
8.555062370897168e-05,5.979495277654441e-08,5.820734685610832e-05,2.598748331725036e-31,0.00014381776551785654,0.0001543121236580533,-126.879868798688
8.806700484000467e-05,6.830893964262797e-08,6.211326656321586e-05,3.828750446925316e-31,0.00015024858034286314,0.00016335624844199292,-126.71986719867199
9.06441384513246e-05,7.798160445187204e-08,6.625791909409797e-05,5.634385860463146e-31,0.00015698003914987445,0.00017288026541901523,-126.55986559865599
9.328303720056341e-05,8.896279009724925e-08,7.065421445422866e-05,8.281953705946051e-31,0.00016402621444488931,0.00018290646522067558,-126.39986399863999
9.598471579749945e-05,1.01420612632332e-07,7.531564668309105e-05,1.215949951307817e-30,0.00017140178309322282,0.00019345798483144978,-126.23986239862398
9.875019046136306e-05,1.1554354023548903e-07,8.025631294815297e-05,1.7831804283743842e-30,0.00017912204694975152,0.00020455882904507811,-126.07986079860798
0.00010158047836126461,1.3154268935451146e-07,8.549093280414238e-05,2.61199033738742e-30,0.0001872029538547615,0.00021623389186689596,-125.91985919859198
0.00010447659703975431,1.496543583268694e-07,9.103486758645957e-05,3.821593866406756e-30,0.00019566111898454075,0.0002285089778207105,-125.75985759857599
0.00010743956381954235,1.7014282038460492e-07,9.690413990518597e-05,5.5848843526300106e-30,0.00020451384654511292,0.00024141082311661646,-125.59985599855999
0.00011047039519342111,1.933033996626995e-07,0.00010311545320367712,8.152306997170081e-30,0.0002137791517967609,0.00025496711663390814,-125.43985439854399
0.00011357010619745931,2.1946585563791657e-07,0.0001096862113432512,1.1886214277888952e-29,0.00022347578339634844,0.000269206520671065,-125.27985279852798
0.00011673970976754703,2.489981033328909e-07,0.00011663453817290175,1.7310247308772616e-29,0.00023362324604378167,0.0002841586914125124,-125.11985119851198
0.00011998021607939698,2.823102986290725e-07,0.00012397929704037857,2.5180229151789922e-29,0.0002442418234184046,0.0002998542990596533,-124.95984959849598
0.00012329263187212412,3.1985932014234577e-07,0.00013174011019833514,3.6585818165736575e-29,0.00025535260139060163,0.00031632504757139984,-124.79984799847999
0.00012667795975554994,3.621536813266867e-07,0.0001399373780565685,5.309609150788306e-29,0.0002669774914934451,0.00033360369395722873,-124.63984639846399
0.00013013719750139082,4.097589087831409e-07,0.00014859229822867013,7.696779106273244e-29,0.00027913925463884405,0.00035172406706352095,-124.47984479844798
0.0001336713373185225,4.6330342516207124e-07,0.0001577268843186974,1.1144284237478085e-28,0.000291861525062382,0.00037072108579179393,-124.31984319843198
0.00013728136511252455,5.234849775531528e-07,0.00016736398439073298,1.6117290212519823e-28,0.0003051688344808107,0.0003906307766852093,-124.15984159841598
0.00014096825972973479,5.910776548563129e-07,0.00017752729906146306,2.328244360816843e-28,0.00031908663644605417,0.0004114902908176166,-123.99983999839998
0.00014473299218606636,6.669395403128174e-07,0.00018824139915317602,3.3594004921323784e-28,0.00033364133087955517,0.0004333379199172867,-123.83983839838399
0.00014857652488086304,7.520210481427723e-07,0.00019953174284187202,4.841631047462721e-28,0.00034886028877087786,0.0004562131116554259,-123.67983679836799
0.00015249981079608615,8.473739960754249e-07,0.0002114246922324524,6.969767470735958e-28,0.00036477187702461396,0.00048015648402754973,-123.51983519835198
0.00015650379268115886,9.541614684636454e-07,0.00022394752929034045,1.0021704086418112e-27,0.000381405483439963,0.0005052098387538823,-123.35983359833598
0.00016058940222380913,1.073668527631522e-06,0.0002371284710562253,1.4393338825922414e-27,0.0003987915418076659,0.0005314161736230686,-123.19983199831998
0.00016475755920727876,1.2073138341031672e-06,0.00025099668406809174,2.0648010433973607e-27,0.00041696155710947366,0.000558819693701687,-123.03983039830399
0.00016900917065429294,1.3566622393858273e-06,0.00026558229791219485,2.9586361613651698e-27,0.00043594813080587364,0.0005874658213304082,-122.87982879828797
0.0001733451299581982,1.5234384180151756e-06,0.00028091641782220704,4.234494753395756e-27,0.00045578498619842044,0.0006174012048259622,-122.71982719827199
0.00017776631600172359,1.709541608597478e-06,0.0002970311362435065,6.05352478972928e-27,0.0004765069938538276,0.0006486737258067484,-122.55982559825598
0.00018227359226380898,1.9170615365784405e-06,0.00031395954327726274,8.643939915009732e-27,0.0004981501970776501,0.0006813325050583555,-122.39982399823998
0.00018686780591500545,2.1482955944131777e-06,0.0003317357359169832,1.2328545479549225e-26,0.0005207518374264018,0.0007154279068542259,-122.23982239822398
0.00019154978690195213,2.405767357674804e-06,0.0003503948259881395,1.7563401598145383e-26,0.0005443503802477664,0.0007510115416454672,-122.07982079820798
0.00019632034702146716,2.6922465183967026e-06,0.0003699729466997292,2.499206318343508e-26,0.000568985540239593,0.0007881362670329199,-121.91981919819199
0.00020118027898481813,3.010770319561966e-06,0.00039050725771493973,3.552158012620156e-26,0.0005946983070193199,0.0008268561869338409,-121.75981759817599
0.00020613035547274822,3.364666577098748e-06,0.0004120359486466051,5.0428857715127156e-26,0.0006215309706964521,0.0008672266488548256,-121.59981599815998
0.00021117132818188023,3.75757837797868e-06,0.00043459824088187707,7.150932412849985e-26,0.000649527147441736,0.0009093042391823199,-121.43981439814398
0.00021630392686312268,4.1934905450021545e-06,0.0004582343876394188,1.0128448024462439e-25,0.0006787318050475436,0.0009531467764016922,-121.27981279812798
0.0002215288583527387,4.676757960552863e-06,0.0004829856721615761,1.4329129984054521e-25,0.0007091912884748677,0.0009988133021558358,-121.11981119811198
0.00022684680559676102,5.212135842963496e-06,0.0005088944039433401,2.0248526691481942e-25,0.0007409533453830646,0.0010463640700544461,-120.95980959809597
0.00023225842666945438,5.804812070110605e-06,0.0005360039128995554,2.8580098648625156e-25,0.0007740671516391203,0.001095860532145464,-120.79980799807998
0.00023776435378655936,6.460441645397153e-06,0.0005643585413716845,4.0293102271569153e-25,0.0008085833368036411,0.0011473653229608389,-120.63980639806398
0.0002433651923140585,7.185183401328493e-06,0.0005940036338756015,5.674065917672827e-25,0.0008445540095909886,0.0012009422410494968,-120.47980479804798
0.00024906151977325213,7.985739035394648e-06,0.0006249855244923776,7.980952675491221e-25,0.0008820327833010243,0.001256656227911671,-120.31980319803198
0.0002548538848429283,8.869394571865857e-06,0.0006573515218047491,1.121274078713572e-24,0.0009210748012195432,0.0013145733442499199,-120.15980159801597
0.0002607428063594504,9.844064341340975e-06,0.0006911498912830458,1.5734955434204084e-24,0.0009617367619838372,0.001374760743453874,-119.99979999799999
0.0002667287723156025,1.0918337567389153e-05,0.0007264298350258251,2.205545085909536e-24,0.0010040769449088168,0.0014372866422376661,-119.83979839798398
0.0002728122388590452,1.2101527646326867e-05,0.0007632414687621282,3.0878987451232105e-24,0.0010481552352675002,0.001502220288350987,-119.67979679796798
0.00027899362929127307,1.3403724202018326e-05,0.0008016357960245464,4.318240735749631e-24,0.0010940331495178377,0.0015696319252874334,-119.51979519795198
0.0002852733330679654,1.4835847992494943e-05,0.000841664679404646,6.031805611617636e-24,0.0011417738604651063,0.0016395927539163348,-119.35979359793598
0.0002916517048016524,1.6409708739102906e-05,0.0008833808088052801,8.415588898308543e-24,0.0011914422223460355,0.001712174890967374,-119.19979199791997
0.00029812906326763647,1.8138065941731393e-05,0.0009268376666075619,1.172784925617182e-23,0.0012431047958169298,0.001787451324300697,-119.03979039790397
0.0003047056904141196,2.0034692735379556e-05,0.0009720894896739345,1.6324839730612433e-23,0.0012968298728234337,0.0018654958648988082,-118.87978879788798
0.000311381830377517,2.211444283382284e-05,0.001019191228112946,2.2697402827311465e-23,0.0013526875013242859,0.0019463830955206113,-118.71978719787198
0.00031815768850393416,2.4393320595365558e-05,0.0010681985007356858,3.152100767287793e-23,0.0014107495098349856,0.0020301883159620803,-118.55978559785598
0.00032503343037782584,2.688855423356605e-05,0.0011191675471390018,4.372408279174232e-23,0.0014710895317503936,0.00211698748487291,-118.39978399783998
0.00033200918085884583,2.961867218231037e-05,0.001172155176355759,6.058121948007141e-23,0.0015337830293969152,0.0022068571580831893,-118.23978239782397
0.0003390850231279236,3.260358260965643e-05,0.0012272187120183284,8.384014150783883e-23,0.0015989073177559085,0.002299874423399524,-118.07978079780798
0.00034626099774361736,3.586465605840178e-05,0.0012844159339877098,1.158944615473391e-22,0.001666541587789729,0.0023961168318356826,-117.91977919779198
0.0003535371017097909,3.942481117329972e-05,0.0013438050164072445,1.600184463770089e-22,0.001736766929290335,0.0024956623252484233,-117.75977759777598
0.0003609132875556962,4.3308603455234865e-05,0.0014054444621471793,2.2068565547240897e-22,0.0018096663531581103,0.002598589160355914,-117.59977599775998
0.00036838946242953016,4.7542316961406564e-05,0.0014693930336136438,3.0400088544864016e-22,0.0018853248130045806,0.0027049758291221478,-117.43977439774397
0.00037596548720655637,5.215405884765801e-05,0.0015357096799037211,4.182849897885583e-22,0.0019638292259579354,0.0028149009754979636,-117.27977279772797
0.00038364117561288594,5.717385662450216e-05,0.0016044534602965778,5.748657039985529e-22,0.002045268492533966,0.0029284433085162986,-117.11977119771197
0.0003914162933660202,6.263375797212146e-05,0.001675683464079456,7.891457236846438e-22,0.0021297335154175975,0.003045681511746783,-116.95976959769598
0.00039929055733326266,6.856793293167908e-05,0.0017494587267165066,1.0820434568246282e-21,0.0022173172169814483,0.003166694149122574,-116.79976799767998
0.0004072636347091042,7.501277826065929e-05,0.0018258381423779714,1.4819340845409172e-21,0.002308114555347735,0.0032915595671602236,-116.63976639766398
0.0004153351422127065,8.200702370874481e-05,0.0019048803728573163,2.0272614348244492e-21,0.0024022225387787676,0.0034203557936019423,-116.47976479764797
0.00042350464530659213,8.959183993790397e-05,0.001986643752914081,2.770048152575539e-21,0.0024997402381585774,0.003553160432517918,-116.31976319763197
0.00043177165743765814,9.781094777603735e-05,0.00207118619209101,3.780607281868463e-21,0.002600768797304705,0.0036900505559153245,-116.15976159761598
0.0004401356393016339,0.0001067107284577679,0.0021585650730649745,5.1538586386839555e-21,0.0027054114408243766,0.003831102591909821,-115.99975999759997
0.0004485959981320795,0.00011634033446881018,0.0022488371466023627,7.017786092105653e-21,0.0028137734792032525,0.00397639220952413,-115.83975839758398
0.00045715208701506605,0.00012675180057206486,0.0023420584232016262,9.544747380257418e-21,0.0029259623107887574,0.0041259942001887415,-115.67975679756798
0.0004658032042306033,0.00013800015455406447,0.0024382840615168218,1.2966579841099634e-20,0.0030420874203014895,0.00427998235602821,-115.51975519755197
0.0004745485926219435,0.00015014352719009146,0.002537568253668756,1.7594751062916755e-20,0.003162260373480791,0.0044384293450275315,-115.35975359753597
0.00048338743899383716,0.00016324326088508592,0.00263996410756211,2.3847205973709816e-20,0.003286594807441033,0.004601406583182334,-115.19975199751997
0.0004923188735408226,0.00017736401640577434,0.0027455235263395923,3.228409131462056e-20,0.003415206416286189,0.00476898410374706,-115.03975039750398
0.0005013419693066295,0.0001925738770773835,0.002854297085116669,4.365523388155819e-20,0.003548212931500682,0.0049412304237055876,-114.87974879748798
0.000510455741675736,0.00020894444977610067,0.0029663339051529984,5.896316122913207e-20,0.0036857340966048348,0.005118212407598768,-114.71974719747197
0.0005196591478981452,0.00022655096200647218,0.003081681525629621,7.95466487692254e-20,0.0038278916355342384,0.005299995128854251,-114.55974559745597
0.0005289510866483961,0.0002454723543112944,0.0032003857732135076,1.0719134104452888e-19,0.0039748092141731976,0.005486641728773855,-114.39974399743997
0.0005383303976198269,0.0002657913672207361,0.0033224906296038742,1.4427603839757915e-19,0.004126612394444437,0.005678213273344576,-114.23974239742398
0.0005477958611550901,0.000287594621907662,0.00344803809726741,1.9396590684340357e-19,0.004283428580330162,0.005874768608049606,-114.07974079740796
0.0005573461979138767,0.00031097269367771576,0.003577068063581851,2.6046734412013897e-19,0.004445386955173443,0.0060763642108657406,-113.91973919739198
0.0005669800685788372,0.0003360201773862503,0.0037096181636203838,3.49363757827389e-19,0.004612618409585471,0.0062830540436449285,-113.75973759737597
0.0005766960736005912,0.000362835743839614,0.0038457236418206245,4.680573903714564e-19,0.00478525545926083,0.006494889402086285,-113.59973599735997
0.000586492752982764,0.00039152218620661246,0.003985417212794922,6.263499564450385e-19,0.0049634321519842995,0.00671191876451651,-113.43973439734397
0.0005963685861079177,0.0004221864554369638,0.004128728921549696,8.372047510639127e-19,0.005147283963094578,0.0069341876397055096,-113.27973279732797
0.0006063219916052337,0.0004549396836581492,0.004275686003393224,1.1177456927908215e-18,0.005336947678656607,0.007161738413954118,-113.11973119731198
0.0006163513272607782,0.000489897194500421,0.0044263127438222815,1.490565324175162e-18,0.005532561265583482,0.007394610197700324,-112.95972959729598
0.0006264548899711358,0.0005271784992823121,0.004580630338688266,1.9854351695946693e-18,0.0057342637279417154,0.007632838671899102,-112.79972799727997
0.0006366309157411893,0.0005669072779764778,0.004738656754954034,2.6415394163046873e-18,0.005942194948671704,0.007876455934440666,-112.63972639726397
0.0006468775797267704,0.000609211343868141,0.004900406592361654,3.510388380841545e-18,0.006156495515956569,0.008125490346879703,-112.47972479724797
0.0006571929963228774,0.0006542225908166672,0.005065890946340592,4.659613870426191e-18,0.00637730653348014,0.00837996638175677,-112.31972319723197
0.0006675752192981297,0.0007020769220350081,0.005235117272493977,6.177907171863213e-18,0.006604769413827121,0.008639904470800779,-112.15972159721596
0.0006780222419760736,0.0007529141593125264,0.005408089253008268,8.181435585665588e-18,0.006839025654296876,0.008905320854308748,-111.99971999719997
0.000688531997463941,0.0008068779316244032,0.005584806665338632,1.0822169720157188e-17,0.007080216594426986,0.009176227432006055,-111.83971839718397
0.0006991023589293853,0.0008641155420957169,0.005765265253528165,1.4298676930861598e-17,0.007328483154553281,0.009452631615696424,-111.67971679716797
0.0007097311399257284,0.0009247778123211626,0.005949456602524836,1.8870093621270187e-17,0.007583965554771746,0.009734536184017482,-111.51971519715197
0.0007204160947661599,0.0009890189030819297,0.006137368015864071,2.4874189814063486e-17,0.007846803013712185,0.010021939139622162,-111.35971359713596
0.0007311549189473213,0.0010569961105504615,0.006328982397088557,3.275069506107134e-17,0.008117133426586372,0.010314833569111568,-111.19971199711998
0.0007419452496226498,0.001128869637131594,0.0065242781352795815,4.307137999750005e-17,0.008395093022033869,0.010613207506048798,-111.03971039710397
0.0007527846661258034,0.0012048023361550986,0.0067232289950752986,5.657880103398223e-17,0.008680815997356258,0.010917043797386259,-110.87970879708797
0.0007636706905444655,0.0012849594297105662,0.006925804011552623,7.423613988682752e-17,0.00897443413180773,0.011226319973642715,-110.71970719707197
0.0007746007883447532,0.001369508199000371,0.007131967390348246,9.729123379341787e-17,0.009276076377693468,0.011541008123167213,-110.55970559705597
0.000785572369046422,0.001458617646680826,0.007341678413393003,1.2735873255217217e-16,0.009585868429120377,0.011861074770829117,-110.39970399703996
0.000796582786949002,0.0015524581307652119,0.007554891350631127,1.6652538022462517e-16,0.009903932268345506,0.01218648076147372,-110.23970239702396
0.0008076293419089541,0.001651200969775342,0.007771555378091884,2.1748475893521393e-16,0.010230385689776396,0.012517181148482619,-110.07970079700797
0.0008187092801678847,0.001755018018950479,0.007991614502676317,2.8370952011571837e-16,0.010565341801794964,0.012853125087777228,-109.91969919699197
0.0008298197952317914,0.0018640812174534065,0.00821500749401513,3.696712523976758e-16,0.010908908506700699,0.01319425573760146,-109.75969759697597
0.000840958028801283,0.0019785621066537385,0.008441667823747034,4.811208040568124e-16,0.011261187959202536,0.013540510164417544,-109.59969599695997
0.0008521210717526475,0.00209863131971659,0.008671523612557602,6.254452265837638e-16,0.011622276004027467,0.013891819255244775,-109.43969439694396
0.0008633059651695836,0.0022244580428813247,0.008904497585309144,8.121217020132815e-16,0.011992261593360865,0.01424810763676681,-109.27969279692797
0.0008745097014253778,0.0023562094489791,0.009140507034581148,1.0532940672054398e-15,0.01237122618498668,0.014609293601527969,-109.11969119691197
0.00088572922531522,0.0024940501039085895,0.009379463792928066,1.3645041091773875e-15,0.01275924312215324,0.014975289041532022,-108.95968959689597
0.000896961435238341,0.0026381413469668555,0.009621274214148537,1.7656179923847991e-15,0.013156376996355499,0.01534599938955109,-108.79968799687997
0.0009082031844295517,0.0027886406461147583,0.009865839163844562,2.2819983801521806e-15,0.013562682994391154,0.015721323568442958,-108.63968639686397
0.0009194512822397431,0.0029457009294439666,0.010113054019533945,2.9459855060956185e-15,0.013978206231220602,0.01610115394876692,-108.47968479684796
0.0009307024954648298,0.003109469894303851,0.010362808680561875,3.798766224044552e-15,0.014402981070334355,0.016485376314978328,-108.31968319683196
0.0009419535497225725,0.003280089295740618,0.010614987588039493,4.8927296358379424e-15,0.014837030433507575,0.016873869840470953,-108.15968159681597
0.0009532011308766638,0.0034576942160970156,0.010869469755018082,6.2944321457122124e-15,0.015280365101998056,0.017266507071725223,-107.99967999679997
0.0009644418865073783,0.0036424123178169943,0.011126128807086655,8.088324793566811e-15,0.015732983011419115,0.017663153921806993,-107.83967839678397
0.0009756724274280747,0.003834363081696065,0.011384833033560157,1.0381432789806962e-14,0.01619486854269468,0.018063669673449176,-107.67967679676796
0.0009868893292467433,0.004033657033011484,0.011645445449402153,1.330922291082108e-14,0.016665991811673688,0.01846790699193341,-107.51967519675196
0.0009980891339717531,0.0042403949581573085,0.01190782386800313,1.7042950761542843e-14,0.017146307960149234,0.018875711947974244,-107.35967359673597
0.0010092683516609068,0.004454667114595538,0.012171820984911184,2.1798849232136125e-14,0.017635756451189425,0.019286924050792565,-107.19967199671996
0.0010204234621128167,0.004676552437113963,0.012437284472586062,2.7849604633733486e-14,0.018134260371840693,0.019701376291547286,-107.03967039670397
0.0010315509165996373,0.0049061177435551296,0.01270405708622339,3.553867146062358e-14,0.018641725746413696,0.020118895197279,-106.87966879668797
0.0010426471396400327,0.0051434169433425825,0.012971976780666767,4.5298104683779484e-14,0.01915804086369468,0.020539300895497867,-106.71966719667196
0.0010537085308112992,0.005388490252285369,0.013240876838400676,5.767074498992433e-14,0.019683075621555014,0.020962407189532226,-106.55966559665598
0.0010647314665994596,0.005641363417281875,0.013510586008587875,7.33377835331245e-14,0.020216680892542548,0.021388021644732927,-106.39966399663996
0.0010757123022860856,0.005902046954671633,0.013780928657086538,9.31529658891864e-14,0.02075868791413741,0.021815945685607924,-106.23966239662397
0.0010866473738706149,0.006170535406097755,0.014051724927355255,1.181849787949803e-13,0.021308907707441812,0.022245974703942996,-106.07966079660797
0.0010975330000267884,0.006446806615837051,0.014322790912122582,1.4976990846195848e-13,0.021867130528136193,0.022677898177939634,-105.91965919659197
0.001108365484091871,0.006730821033635676,0.014593938835670823,1.8957607839858922e-13,0.02243312535358795,0.02311149980238258,-105.75965759657596
0.0011191411160872194,0.007022521047146291,0.014864977246552748,2.396840828412194e-13,0.023006639410025943,0.023546557629824754,-105.59965599655996
0.0011298561747687251,0.0073218303481028995,0.015135711220531136,3.026854470662717e-13,0.023587397743705444,0.02398284422275554,-105.43965439654397
0.0011405069297056312,0.007628653336387274,0.015405942573501466,3.8180408945903414e-13,0.024175102839976176,0.024420126816695274,-105.27965279652796
0.0011510896433861424,0.007942874566135719,0.0156754700841282,4.810456577085315e-13,0.024769434294131108,0.024858167494134144,-105.11965119651197
0.0011616005733482667,0.008264358238008385,0.015944089725897323,6.053808931012773e-13,0.025370048537859357,0.025296723369212404,-104.95964959649596
0.0011720359743341965,0.00859294774168864,0.016211594908256906,7.609704783928412e-13,0.025976578625040714,0.025735546783011428,-104.79964799647996
0.0011823921004665945,0.008928465252604994,0.016477776726491217,9.554403884764395e-13,0.026588634080518248,0.026174385509304558,-104.63964639646396
0.0011926652074450341,0.009270711386763497,0.016742424219944436,1.198218639008608e-12,0.027205800815351188,0.026612982970590008,-104.47964479644796
0.0012028515547608557,0.009619464917450362,0.017005324638183602,1.5009465751757866e-12,0.027827641111895764,0.027051078464205184,-104.31964319643197
0.001212947407928642,0.00997448255740961,0.017266263714663627,1.877980530150392e-12,0.02845369368187986,0.027488407398297585,-104.15964159641595
0.0012229490407324821,0.010335498809918273,0.017525025947430953,2.3470028918076283e-12,0.029083473800428715,0.02792470153740237,-103.99963999639996
0.0012328527374851975,0.01070222589197642,0.017781394886379014,2.9297654422610793e-12,0.0297164735187704,0.028359689257355325,-103.83963839638396
0.001242654795298606,0.011074353732593072,0.01803515342654267,3.652992389204099e-12,0.030352161958087338,0.02879309580924291,-103.67963679636796
0.0012523515263629529,0.011451550048893663,0.018286084106898096,4.5494759210992644e-12,0.030989985686704188,0.029224643592071286,-103.51963519635197
0.0012619392602335555,0.011833460502489773,0.018533969414111708,5.6594035416374604e-12,0.03162936918249444,0.029654052433811168,-103.35963359633595
0.0012714143461226921,0.012219708938245135,0.018778592090661468,7.031964049062507e-12,0.03226971538206126,0.030081039880453013,-103.19963199631997
0.0012807731551947928,0.012609897707244659,0.019019735446736127,8.727288027804394e-12,0.03291040631790287,0.030505321492687237,-103.03963039630396
0.0012900120828628926,0.01300360807541928,0.019257183675298332,1.0818789350746893e-11,0.03355080384439929,0.0309266111497993,-102.87962879628796
0.0012991275510843628,0.013400400718912462,0.019490722169683537,1.3395986724913554e-11,0.034190250453076346,0.031344621360352355,-102.71962719627196
0.0013081160106538801,0.01379981630688327,0.019720137843090877,1.6567899068168316e-11,0.03482807017719593,0.03175906357920777,-102.55962559625596
0.0013169739434915973,0.014201376172037232,0.019945219449309687,2.0467125844596357e-11,0.035463569585305645,0.032169648530415526,-102.39962399623997
0.0013256978649244663,0.014604583068757048,0.02016575790401449,2.5254743830937532e-11,0.03609603886295075,0.032576086535488394,-102.23962239622395
0.0013342843259586447,0.015008922018273179,0.02038154660595114,3.112617561679666e-11,0.03672475298130914,0.032978087846554864,-102.07962079620796
0.001342729915540955,0.01541386123987563,0.02059238175733048,3.831821300794449e-11,0.037348972951065276,0.033375362983871934,-101.91961919619196
0.0013510312628072902,0.01581885316671702,0.020798062682738525,4.711741103351747e-11,0.03796794715938025,0.03376762307715958,-101.75961759617596
0.0013591850393159365,0.016223335544307303,0.02099839214586994,5.787010617095406e-11,0.03858091278736328,0.03415458021020804,-101.59961599615997
0.0013671879612637359,0.01662673260934405,0.021193176663388644,7.099435651161992e-11,0.03918709730499079,0.034535947768192916,-101.43961439614395
0.0013750367916830228,0.017028456346068137,0.021382226815219584,8.699415281949818e-11,0.039785720039964896,0.03491144078712169,-101.27961279612796
0.0013827283426173125,0.01742790781688666,0.021565357550578482,1.064763088310818e-10,0.04037599381655876,0.03528077630482544,-101.11961119611196
0.0013902594772736642,0.01782447856355802,0.02174238848904908,1.3017050788747703e-10,0.04095712666005127,0.03564367371289702,-100.95960959609596
0.0013976271121497205,0.01821755207480359,0.021913144216024655,1.5895306241021358e-10,0.04152832356193102,0.03599985510897149,-100.79960799607996
0.0014048282191333932,0.018606505315786382,0.0220774545718378,1.9387503432458538e-10,0.04208878830063261,0.03634904564873517,-100.63960639606395
0.0014118598275732032,0.018990710314492506,0.022235154933912683,2.361954699736661e-10,0.042637725312173864,0.03669097389704491,-100.47960479604797
0.0014187190263172996,0.01936953579966317,0.02238608649128608,2.874206242245146e-10,0.04317434160468717,0.03702537217753454,-100.31960319603195
0.0014254029657191879,0.019742348884557722,0.022530096510856787,3.49350187432371e-10,0.043697848710483884,0.037351976920081825,-100.15960159601596
0.0014319088596082647,0.0201085167904878,0.02266703859473993,4.2413168801934383e-10,0.04420746466896769,0.037670529005509226,-99.99959999599996
0.0014382339872232174,0.02046740860374334,0.022796772928118856,5.143244252119561e-10,0.04470241603340983,0.03798077410688908,-99.83959839598396
0.001444375695106444,0.020818397059247543,0.022919166517008257,6.229744938106421e-10,0.045181939894336734,0.038282463026827744,-99.67959679596797
0.0014503313989576326,0.021160860344020264,0.023034093415362562,7.537026988642246e-10,0.04564528591204316,0.03857535203010432,-99.51959519595195
0.0014560985854446863,0.021494183913307575,0.023141434940986808,9.108074262338955e-10,0.0460917183505465,0.03885920317104397,-99.35959359593596
0.0014616748139702372,0.021817762312050563,0.02324107987973243,1.099384839020276e-09,0.04652051810513807,0.039133784615012886,-99.19959199591996
0.0014670577183919886,0.02213100099421467,0.023332924677485777,1.325469113799103e-09,0.046930984715561556,0.03939887095342699,-99.03959039590396
0.0014722450086952063,0.022433318132393878,0.02341687361948594,1.596195819034144e-09,0.04732243835677084,0.03965424351167726,-98.87958879588795
0.0014772344726156985,0.022724146410032148,0.02349283899653698,1.919991975740867e-09,0.0476942217991768,0.03989969064938319,-98.71958719587195
0.0014820239772116717,0.023002934788577175,0.02356074125771069,2.3067968326773707e-09,0.04804570233029636,0.040135008052398315,-98.55958559585596
0.0014866114703829096,0.02326915024189506,0.023620509149167798,2.7683179406374842e-09,0.048376273629763704,0.04035999901600433,-98.39958399583995
0.0014909949823357438,0.023522279450330103,0.02367207983875828,3.3183277287977307e-09,0.04868535758975186,0.040574474718744515,-98.23958239582396
0.0014951726269923752,0.023761830446894665,0.02371539902609613,3.97300647689512e-09,0.04897240607298965,0.04077825448636393,-98.07958079580796
0.0014991426033431124,0.02398733420821347,0.023750421037838334,4.751338347012578e-09,0.04923690260073326,0.040971166045339284,-97.91957919579195
0.001502903196740185,0.02419834618303343,0.02377710890793422,5.675567995021012e-09,0.04947836396327583,0.04115304576550146,-97.75957759577597
0.0015064527801318256,0.02439444775133425,0.023795434442647725,6.77172623166699e-09,0.04969634174584003,0.04132373889127216,-97.59957599575995
0.0015097898152353752,0.024575247607342202,0.023805378270192478,8.070234254597718e-09,0.04989042376300431,0.041483099761057254,-97.43957439574396
0.0015129128536482347,0.024740383060056378,0.02380692987485742,9.606597133207482e-09,0.05006023539515917,0.041630992014362024,-97.27957279572796
0.0015158205378955308,0.024889521245239143,0.023800087615538767,1.1422198506138382e-08,0.050205440820871944,0.04176728878621546,-97.11957119571196
0.0015185116024134413,0.025022360243204613,0.02378485872863258,1.356520985477669e-08,0.05032574413946049,0.041891872888516146,-96.95956959569595
0.0015209848744671829,0.02513863009715164,0.023761259315280923,1.609162925328376e-08,0.050420890378528996,0.04200463697793659,-96.79956799567995
0.0015232392750027235,0.025238093727234834,0.023729314313002903,1.906646617464612e-08,0.050490666381706635,0.04210548371004933,-96.63956639566396
0.0015252738194313628,0.025320547736041744,0.023689057451780668,2.2565090760684572e-08,0.05053490157234453,0.04219432587936511,-96.47956479564795
0.00152708761834637,0.025385823101645874,0.023640531194708655,2.6674767949272005e-08,0.05055346858946885,0.042271086545000926,-96.31956319563196
0.0015286798781709624,0.025433785754930605,0.023583786663352112,3.149639900095612e-08,0.050546283792852684,0.042335699141724734,-96.15956159561595
0.0015300499017369517,0.025464337038423556,0.023518883547998744,3.7146495285644494e-08,0.05051330763465453,0.042388107576152224,-95.99955999559995
0.0015311970887934747,0.02547741404444376,0.023445890003023936,4.37594116829803e-08,0.05045454489567285,0.04242826630790109,-95.83955839558396
0.0015321209364452869,0.025472989830939298,0.023364882527626273,5.1489869621031575e-08,0.050370044784880476,0.04245614041553865,-95.67955679556795
0.0015328210395201697,0.025451073513978927,0.023275945832225694,6.05158026289989e-08,0.05025990090152741,0.04247170564718873,-95.51955519555196
0.0015332970908650764,0.025411710236453184,0.023179172690850576,7.104156031097703e-08,0.05012425105972914,0.04247494845569563,-95.35955359553596
0.0015335488815707153,0.025354981013135516,0.023074663779874143,8.330150985711024e-08,0.04996327697609023,0.042465866018273395,-95.19955199551995
0.001533576301124337,0.025281002452847652,0.022962527503492303,9.756407759123505e-08,0.04977720382154188,0.04244446624060066,-95.03955039550395
0.001533379337490572,0.025189926359062854,0.022842879806366498,1.1413627660233477e-07,0.04956629963919653,0.04241076774535284,-94.87954879548795
0.0015329580771202352,0.025081939210861843,0.022715843973884757,1.3336877020978928e-07,0.04933087463063704,0.04236479984519478,-94.71954719547196
0.0015323127048870867,0.02495726152672527,0.022581550420522428,1.5566152485437315e-07,0.04907128031365964,0.04230660250028877,-94.55954559545594
0.0015314435039526168,0.024816147114201017,0.022440136466811297,1.8147010996874194e-07,0.048787908555074894,0.04223622626040424,-94.39954399543996
0.0015303508555589915,0.024658882209019246,0.02229174610545034,2.113127064387384e-07,0.04848119048273502,0.04215373219174631,-94.23954239542395
0.0015290352387503684,0.02448578450774257,0.022136529757116056,2.457778893902667e-07,0.048151595281498386,0.04205919178865174,-94.07954079540795
0.0015274972300228754,0.024297202098526368,0.02197464401655123,2.8553325519094065e-07,0.04779962887835566,0.0419526868703308,-93.91953919539195
0.0015257375029035993,0.024093512295025498,0.021806251389531905,3.3133496669899896e-07,0.0474258325224277,0.04183430946286399,-93.75953759537595
0.0015237568274590278,0.023875120378913893,0.021631520021330324,3.84038294876099e-07,0.04703078126599812,0.04170416166669171,-93.59953599535996
0.0015215560697334322,0.02364245825688043,0.021450623417308138,4.446092388497516e-07,0.04661508235316085,0.041562355509864056,-93.43953439534394
0.001519136191117781,0.023395983038327555,0.021263740156289183,5.141373103020187e-07,0.04617937352304482,0.04140901278734609,-93.27953279532795
0.0015164982476498108,0.023136175540322646,0.021071053597372727,5.938495716029044e-07,0.045724321234916786,0.04124426488670095,-93.11953119531195
0.001513643389245984,0.022863538726640636,0.02087275158086042,6.851260203190477e-07,0.04525061882276736,0.04106825260050038,-92.95952959529595
0.001510572858866101,0.022578596087980442,0.020669026123977224,7.895164155242788e-07,0.04475898458723929,0.04088112592583732,-92.79952799527996
0.0015072879916114283,0.022281889970644016,0.02046007311207443,9.087586436201353e-07,0.04425015983297349,0.040683043851340195,-92.63952639526394
0.0015037902137572526,0.021973979861129766,0.020246091986007478,1.044798723036632e-06,0.04372490685961754,0.040474174132112434,-92.47952479524795
0.0015000810417208378,0.021655440634210786,0.0200272854263832,1.199812548113291e-06,0.04318400691486294,0.040254693053042453,-92.31952319523195
0.0014961620809658448,0.02132686077214837,0.019803859035373402,1.376229472532437e-06,0.04262825811796015,0.04002478518095236,-92.15952159521595
0.001492035024844305,0.020988840562723352,0.019576021016788944,1.5767578317642864e-06,0.04205847336218837,0.03978464310607211,-91.99951999519995
0.001487701653377329,0.020641990283762006,0.01934398185510646,1.8044125019447947e-06,0.04147547820474774,0.03953446717334639,-91.83951839518394
0.0014831638319757728,0.020286928381782886,0.019107953994134307,2.0625445893002834e-06,0.04088010875248227,0.03927446520409833,-91.67951679516796
0.0014784235101021526,0.019924279652300987,0.018868151515997512,2.3548733395064453e-06,0.04027320955174016,0.039004852208590984,-91.51951519515194
0.0014734827198751505,0.01955467342919641,0.018624789821113267,2.685520350067518e-06,0.0396556314905349,0.03872585009004293,-91.35951359513595
0.001468343574618104,0.01917874179038479,0.018378085309816678,3.0590461607696895e-06,0.03902822972098034,0.038437687340666805,-91.19951199511995
0.0014630082673529423,0.0187971177868251,0.0181282550662863,3.480489287335636e-06,0.03839186160975168,0.03814059873031402,-91.03951039510395
0.0014574790692410602,0.018410433701658315,0.01787551654540306,3.955407751434479e-06,0.037747384724053874,0.03783482498831756,-90.87950879508796
0.0014517583279726816,0.0180193193460006,0.017620087263161895,4.489923146019447e-06,0.03709565486028119,0.03752061247913551,-90.71950719507194
0.001445848466106326,0.017624400397612525,0.017362184491238553,5.090767258428358e-06,0.036437524122215834,0.0371982128724062,-90.55950559505595
0.0014397519793599932,0.0172262967883345,0.017102024956294065,5.765331254649821e-06,0.03577383905524321,0.03686788280803057,-90.39950399503995
0.0014334714348557855,0.01682562114582631,0.016839824544581838,6.521717406490497e-06,0.03510543884267042,0.036529883556905014,-90.23950239502395
0.001427009469319667,0.01642297729476823,0.016575798012398932,7.3687933189746175e-06,0.0344331535698058,0.03618448067792895,-90.07950079500795
0.0014203687872381449,0.01601895882228593,0.01631015870290228,8.316248588052723e-06,0.03375780256101441,0.035831943671915154,-89.91949919499194
0.0014135521589736628,0.015614147711946325,0.01604311826978643,9.37465378852765e-06,0.03308019279449495,0.03547254563303085,-89.75949759497595
0.0014065624188405487,0.015209113050243226,0.015774886408294945,1.05555216589676e-05,0.03240111739903769,0.035106562898396414,-89.59949599495994
0.0013994024631433918,0.014804409809053664,0.01550567059401278,1.18713703142442e-05,0.03172135423652408,0.03473427469646739,-89.43949439494395
0.0013920752481797274,0.01440057770709618,0.015235675829859211,1.3335788277237559e-05,0.031041664573412356,0.03435596279481972,-89.27949279492795
0.0013845837882089794,0.01399814015297314,0.014965104401676003,1.4963501079213626e-05,0.030362791843937337,0.033971911147955704,-89.11949119491194
0.0013769311533895926,0.013597603271921485,0.014694155642775725,1.677043913353555e-05,0.02968546050722034,0.03358240554573917,-88.95948959489596
0.00136912046768633,0.013199455017944096,0.01442302570778817,1.8773806539824193e-05,0.029010374999958424,0.03318773326306204,-88.79948799487994
0.0013611549067497454,0.012804164372543158,0.01415190735611422,2.0992150425647773e-05,0.028338218785832772,0.03278818271133534,-88.63948639486395
0.001353037695769804,0.012412180630830336,0.013880989745266036,2.344543038054752e-05,0.027669653502246726,0.03238404309238565,-88.47948479484795
0.0013447721073057241,0.012023932775355467,0.013610458234345514,2.6155087482966132e-05,0.02700531820448967,0.031975604055329364,-88.31948319483195
0.0013363614590940329,0.011639828937566847,0.013340494197881093,2.9144112364856898e-05,0.026345828706906826,0.03156315535698105,-88.15948159481594
0.0013278091118369161,0.011260255946406464,0.013071274850215185,3.2437111701784684e-05,0.025691777020160348,0.03114698652634063,-87.99947999479994
0.001319118466972903,0.010885578963145601,0.012802973080604291,3.606037245871898e-05,0.02504373088318151,0.03072738653368818,-87.83947839478395
0.0013102929644319447,0.01051614120118672,0.012535757299164388,4.004192316400315e-05,0.024402233387947055,0.03030464346479878,-87.67947679476794
0.0013013360803769706,0.01015226372919785,0.012269791293765965,4.441159142677802e-05,0.02376780269476756,0.029879044200774207,-87.51947519475195
0.001292251324933953,0.009794245355603692,0.01200523409795241,4.92010568571711e-05,0.023140931835347225,0.02945087410396781,-87.35947359473595
0.0012830422399125786,0.0094423625921426,0.011742239869929401,5.444389849450277e-05,0.022522088600479082,0.02902041671046349,-87.19947199471994
0.0012737123965195635,0.009096869693900684,0.011480957782642695,6.0175635797534316e-05,0.02191171550886048,0.02858795342954684,-87.03947039470395
0.0012642653930666618,0.008757998772965602,0.011221531924935602,6.643376220314175e-05,0.02131022985317101,0.028153763250588198,-86.87946879468794
0.0012547048526754328,0.008425959982596584,0.010964101213750521,7.325777021672557e-05,0.020718023819239262,0.027718122457736232,-86.71946719467195
0.0012450344209807612,0.008100941768585524,0.010708799317311606,8.068916696013776e-05,0.02013546467383803,0.027281304352797273,-86.55946559465595
0.0012352577638351896,0.007783111184292477,0.010455754589202108,8.87714790718113e-05,0.019562895016401585,0.02684357898665649,-86.39946399463994
0.0012253785650160284,0.007472614265668034,0.01020509001322358,9.755024583030006e-05,0.019000633089737942,0.026405212899571213,-86.23946239462394
0.0012154005239372503,0.007169576462435267,0.009956923158901489,0.0001070729993574418,0.018448973144631446,0.025966468870645874,-86.07946079460794
0.0012053273533681216,0.006874103121487302,0.009711366147478667,0.00011738923075200832,0.0179081858530861,0.025527605676773632,-85.91945919459195
0.0011951627771605098,0.006586280018466623,0.00946852562821615,0.0001285503410099678,0.017378518764853253,0.025088877861306036,-85.75945759457593
0.0011849105279868003,0.006306173933428368,0.009228502764800701,0.00014060957560434287,0.016860196801820212,0.024650535512689288,-85.59945599455995
0.0011745743450902774,0.0060338332664481706,0.0089913932316374,0.00015362194162716654,0.016353422784803017,0.024212824053279174,-85.43945439454394
0.0011641579720498743,0.005769288689021357,0.008757287219788919,0.00016764410643888833,0.015858377987299038,0.023775984038526002,-85.27945279452794
0.0011536651545610871,0.005512553827105008,0.00852626945230375,0.0001827342768279098,0.015375222710797753,0.02334025096669355,-85.11945119451195
0.0011430996382348648,0.005263625971684534,0.008298419208660531,0.000198952057755131,0.01490409687633506,0.022905855099253677,-84.95944959449594
0.0011324651664162523,0.005022486812796361,0.00807381035804042,0.00021635828984627325,0.014445120627099307,0.02247302129207441,-84.79944799447995
0.0011217654780244766,0.004789103193006293,0.007852511401124402,0.00023501486489883226,0.013998394937054003,0.022041968837493393,-84.63944639446393
0.0011110043054162243,0.004563427876433347,0.0076345855201017145,0.0002549845187908229,0.013564002220742107,0.021612911317348625,-84.47944479444794
0.001100185372273695,0.004345400329510921,0.0074200906365615845,0.0002763306013157012,0.013142006939661902,0.021186056467010363,-84.31944319443194
0.001089312391519104,0.004134947509800324,0.007209079476932647,0.0002991168226212903,0.012732456200873366,0.020761606050439994,-84.15944159441594
0.0010783890632571594,0.003931984659304213,0.007001599645123316,0.0003234069761006609,0.012335380343785347,0.020339755746274914,-83.99943999439995
0.001067419072747051,0.0037364160988760282,0.006797693702009676,0.0003492646377686931,0.01195079351140145,0.01992069504491857,-83.83943839438393
0.0010564060884054502,0.0035481360204800082,0.006597399251410755,0.00037675284235911703,0.01157869420265533,0.019504607156593225,-83.67943679436794
0.001045353759841912,0.003367029274223664,0.006400749032184581,0.0004059337365923545,0.011219065802842512,0.019091668930289546,-83.51943519435194
0.0010342657159281114,0.0031929721472626596,0.006207771016075764,0.0004368682102928109,0.010871877089559345,0.01868205078353003,-83.35943359433594
0.0010231455629022203,0.003025833131859738,0.00601848851094054,0.000469615506274741,0.010537082711977237,0.01827591664283997,-83.19943199431994
0.0010119968825097214,0.0028654736800689507,0.005832920268974401,0.0005042328101659884,0.01021462364171906,0.017873423894802537,-83.03943039430393
0.0010008232301819016,0.0027117489427084425,0.005651080599565946,0.0005407748215974182,0.009904427594053708,0.01747472334755503,-82.87942879428795
0.0009896281332531964,0.002564508490480144,0.005472979486400795,0.000579293308450288,0.009606409418584424,0.01707995920256545,-82.71942719427193
0.0009784150892185445,0.002423597015291268,0.005298622708441109,0.0006198366461217141,0.009320471459072634,0.01668926903651228,-82.55942559425594
0.0009671875640317897,0.0022888550100280437,0.005128011964407371,0.0006624493440374799,0.009046503882504683,0.01630278379307202,-82.39942399423994
0.0009559489904462043,0.002160119425228355,0.004961145000393768,0.0007071715619082036,0.00878438497797653,0.015920627784406505,-82.23942239422394
0.0009447027663980696,0.0020372243012915657,0.004798015740251169,0.00075403861848724,0.008533981426428045,0.015542918702124143,-82.07942079420795
0.0009334522534342409,0.0019200013750540555,0.004638614418377525,0.0008030804958425736,0.008295148542708394,0.015169767637477499,-81.91941919419193
0.0009222007751845758,0.0018082806597441274,0.004482927714561366,0.0008543213423975602,0.00806773049188763,0.014801279110546408,-81.75941759417594
0.0009109516158799897,0.0017018909975094003,0.004330938890529813,0.0009077789782235056,0.00785156048214271,0.014437551108142033,-81.59941599415994
0.0008997080189169397,0.0016006605838849023,0.004182627927861262,0.000963464406276349,0.007646460936939453,0.01407867513015887,-81.43941439414394
0.0008884731854689857,0.001504417463736605,0.004037971666929588,0.0010213813334581474,0.007452243649593327,0.013724736244088603,-81.27941279412794
0.000877250273146092,0.001412989998375956,0.0038969439465563823,0.0010815257055467448,0.007268709923625175,0.013375813147402188,-81.11941119411193
0.0008660423947022426,0.001326207303693149,0.003759515744056615,0.0011438852601716781,0.007095650702623685,0.013031978237497209,-80.95940959409594
0.0008548526167918818,0.0012438996593010089,0.0036256553153730144,0.0012084391021173779,0.006932846693583282,0.012693297688899968,-80.79940799407993
0.0008436839587756835,0.00116589888881715,0.003495328335005142,0.0012751573053028837,0.006780068487900859,0.012359831537405814,-80.63940639406394
0.0008325393915760054,0.0010920387115381854,0.003368498035449262,0.0013440005458186031,0.006637076684382057,0.012031633770833695,-80.47940479404794
0.0008214218365824445,0.0010221550658779908,0.003245125345877342,0.0014149197703911367,0.006503622018728915,0.011708752426068562,-80.31940319403193
0.0008103341646077478,0.0009560864050495526,0.0031251690297940857,0.0014878559045966354,0.006379445504048021,0.011391229692058597,-80.15940159401595
0.0007992791948943418,0.0008936739655692719,0.0030085858214234425,0.0015627396050478493,0.006264278586934905,0.011079102018432747,-79.99939999399993
0.0007882596941716844,0.0008347620092521198,0.002895330560588115,0.0016394910596397687,0.006157843323651688,0.01077240022940166,-79.83939839398394
0.0007772783757645374,0.000779198039445989,0.002785356325857396,0.0017180198397526464,0.006059852580820569,0.010471149642602009,-79.67939679396794
0.0007663378987522873,0.0007268329923252425,0.0026786145657521437,0.0017982248080775562,0.00597001026490723,0.010175370192546253,-79.51939519395194
0.0007554408671793096,0.0006775214041250618,0.0025750552278073205,0.0018799940854506737,0.005888011584562366,0.009885076558337254,-79.35939359393593
0.0007445898293163696,0.0006311215552519077,0.0024746268853060027,0.00196320507975666,0.00581354334963094,0.009600278295309923,-79.19939199391993
0.0007337872769729827,0.0005874955922500705,0.002377276861511073,0.002047724579591775,0.005746284310325901,0.009320979970262948,-79.03939039390394
0.000723035644860603,0.0005465096286409464,0.0022829513512337305,0.0021334089149646334,0.005685905539699913,0.009047181299946049,-78.87938879388793
0.0007123373100064825,0.0005080338256805313,0.0021915955395907095,0.002220104186859338,0.005632070862137061,0.008778877292471867,-78.71938719387194
0.0007016945912179442,0.0004719424541016188,0.002103153717814297,0.0023076465669958513,0.005584437330129711,0.008516058391323965,-78.55938559385594
0.0006911097485968374,0.00043811393792165436,0.002017569395992434,0.002395862668597803,0.005542655751108729,0.008258710621638863,-78.39938399383993
0.0006805849831038246,0.0004064308814042934,0.0019347854126277224,0.0024845699884250157,0.005506371265560856,0.00800681573844288,-78.23938239382394
0.0006701224361721433,0.00037678008026401885,0.0018547440409168875,0.0025735774197491418,0.005475223977102192,0.007760351376531543,-78.07938079380793
0.000659724189370452,0.00034905251819845065,0.0017773870916639814,0.002662685835352544,0.005448849634585428,0.007519291201685253,-77.91937919379194
0.0006493922641142653,0.0003231433498227116,0.0017026560127520445,0.0027516887390185707,0.005426880365707592,0.007283605062920463,-77.75937759377594
0.0006391286214255337,0.00029895187106537835,0.0016304919851098877,0.0028403729833600556,0.0054089454609608555,0.0070532591454846244,-77.59937599375993
0.0006289351617397858,0.00027638147806572673,0.0015608360151211967,0.002928519551210971,0.00539467220613768,0.006828216124308786,-77.43937439374393
0.0006188137247602835,0.00025533961558852497,0.0014936290234343532,0.00301590439718776,0.005383686760970922,0.006608435317641032,-77.27937279372793
0.0006087660893585639,0.00023573771594528133,0.0014288119301416196,0.00310229934542033,0.005375615080865795,0.006393872840591803,-77.11937119371194
0.0005987939735207114,0.00021749112938044537,0.0013663257363064941,0.003187473038864162,0.005370083878071813,0.006184481758330761,-76.95936959369593
0.0005888990343386899,0.00020051904684789587,0.0013061116018278482,0.0032711919350409692,0.005366721618055403,0.005980212238684475,-76.79936799367994
0.000579082868045974,0.00018474441606738107,0.001248110919638514,0.003353221342523757,0.005365159546275627,0.00578101170389236,-76.63936639366393
0.0005693470100967697,0.00017009385171320415,0.0011922653862453767,0.003433326491987367,0.005365032740042718,0.005586824981289546,-76.47936479364793
0.000559692935287995,0.00015649754054818232,0.0011385170686261067,0.0035112736351967325,0.0053659811796590165,0.005397594452693402,-76.31936319363194
0.0005501220579232211,0.00014388914227563327,0.0010868084675060379,0.0035868311649054118,0.0053676508326103035,0.005213260202281519,-76.15936159361593
0.0005406357320177325,0.0001322056868408803,0.0010370825770464043,0.003659770748293577,0.005369694744198595,0.005033760162759065,-75.99935999359994
0.0005312352515438014,0.00012138746887186346,0.0009892829409821266,0.0037298684662924924,0.005371774127690284,0.004859030259622555,-75.83935839358394
0.0005219218507153144,0.00011137793990640882,0.000943353705254582,0.003796905950924591,0.005373559446800897,0.0046890045533391515,-75.67935679356793
0.0005126967043107934,0.00010212359901145991,0.0008992396671907804,0.003860671512640509,0.005374731483153542,0.00452361537926939,-75.51935519355193
0.0005035609280338766,9.357388235772425e-05,0.0008568863212865806,0.0039209612495576295,0.005374982381235811,0.004362793485172614,-75.35935359353593
0.0004945155789102886,8.5681052271707e-05,0.0008162399016570138,0.0039775801305026864,0.005374016663341696,0.004206468166144543,-75.19935199351993
0.00048556165572030604,7.840008624632223e-05,0.0007772474212218554,0.004030343043834276,0.00537155220702276,0.004054567396846759,-75.03935039350394
0.00047670009946570947,7.168856635134596e-05,0.0007398567076992902,0.004079075804170681,0.005367321177687027,0.003907017960898318,-74.87934879348794
0.0004679317938702037,6.550656944607957e-05,0.0007040164364847708,0.004123616109373598,0.005361070909174652,0.003763745577310117,-74.71934719347193
0.0004592575659122535,5.9816558558825255e-05,0.00066967616049593,0.004163814440438386,0.005352564725405395,0.003624675023852494,-74.55934559345593
0.00045067818638928826,5.458327576135104e-05,0.0006367863370679294,0.004199534897313576,0.005341582696532145,0.0034897302572570337,-74.39934399343993
0.0004421943705122057,4.977363683145227e-05,0.0006052983519865828,0.004230655964114287,0.005327922323444529,0.0033588345301631545,-74.23934239342393
0.0004338067785290966,4.5356627963143206e-05,0.0005751645407492835,0.004257071197701541,0.005311399144943064,0.0032319105047300344,-74.07934079340794
0.0004255160163770959,4.130320475199499e-05,0.0005463382071459826,0.004278689834167946,0.005291847262443019,0.0031088803628438752,-73.91933919339193
0.00041732263636127924,3.7586193652724785e-05,0.0005187736392544469,0.004295437308394216,0.005269119777662666,0.002989665912860109,-73.75933759337593
0.00040922713785948356,3.418019607735908e-05,0.0004924261229454564,0.004307255682514648,0.005243089139396947,0.0028741886928290127,-73.59933599335993
0.00040122996805195605,3.10614952752076e-05,0.00046725195299492464,0.004314103979846082,0.00521364739616817,0.002762370070162488,-73.43933439334393
0.00039333152267471353,2.8207966110456527e-05,0.00044320844190074224,0.004315958421586911,0.005180706352272824,0.0026541313377082556,-73.27933279332792
0.0003855321467955009,2.5598987829450706e-05,0.00042025392650271807,0.004312812564372723,0.0051441976255003925,0.0025493938062062338,-73.11933119331194
0.0003778321356112269,2.321535988766193e-05,0.00039834777250427795,0.004304677337574958,0.005104072605578125,0.002448078893110017,-72.95932959329593
0.0003702317352657719,2.103922088591941e-05,0.0003774503769945664,0.004291580980040442,0.0050603023131867,0.002350108207764404,-72.79932799327993
0.00036273114368703924,1.9053970646659808e-05,0.0003575231690692841,0.0042735688767842,0.005012877160187184,0.0022554036329372738,-72.63932639326393
0.00035533051144215013,1.7244195443731565e-05,0.00033852860864807746,0.00425070329695724,0.004961806612491199,0.0021638874027117387,-72.47932479324793
0.00034802994260966727,1.559559638358451e-05,0.000320430183585515,0.004223063035206475,0.004907118757785242,0.002075482176751241,-72.31932319323192
0.0003408294956677487,1.4094920921461579e-05,0.0003031924051716634,0.004190742959317466,0.00484885978107834,0.001990111110957194,-72.15932159321594
0.00033372918439712865,1.2729897483416997e-05,0.00028678080211706617,0.004153853467774249,0.004787093351771861,0.001907697924544927,-71.99931999319993
0.00032672897879784793,1.1489173153567112e-05,0.0002711619131155284,0.004112519861576573,0.004721899926643517,0.0018281669635700326,-71.83931839318393
0.00031982880601863945,1.036225437585408e-05,0.0002563032780764876,0.004066881635316228,0.004653375973787209,0.0017514432609426595,-71.67931679316793
0.0003130285512979078,9.339450610727187e-06,0.00024217342811702207,0.004017091693124451,0.004581633123150108,0.0016774525929729894,-71.51931519315193
0.00030632805891523757,8.411820879432916e-06,0.00022874187440161575,0.003963315495655529,0.004506797249851815,0.0016061215324960896,-71.35931359313592
0.0002997271331523852,7.571123121998656e-06,0.00021597909591576682,0.003905730144762556,0.004429007496952707,0.001537377498629167,-71.19931199311993
0.00029322553926271173,6.809766289418506e-06,0.00020385652625732966,0.003844523412945493,0.004348415244754953,0.001471148803218665,-71.03931039310393
0.000286823004448046,6.120765085943736e-06,0.00019234653952723794,0.003779892725005574,0.004265183034066802,0.0014073646940389187,-70.87930879308793
0.0002805192188419546,5.497697273661348e-06,0.00018142243539882156,0.003712044099620713,0.00417948345113515,0.0013459553948076933,-70.71930719307193
0.0002743138364984381,4.934663448664632e-06,0.00017105842344251895,0.003641191058762522,0.004091497982152144,0.001286852142087643,-70.55930559305592
0.00026820647638507104,4.42624919599353e-06,0.00016122960678021782,0.0035675535130052895,0.004001415845366572,0.0012299872191458467,-70.39930399303992
0.0002621967233796281,3.9674895291000475e-06,0.00015191196514086815,0.0034913566308310555,0.003909432808880652,0.0011752939868464834,-70.23930239302393
0.00025628412926925027,3.553835518804788e-06,0.0001430823373863696,0.003412829700013349,0.0038157500021877735,0.001122706911654299,-70.07930079300793
0.00025046821375123535,3.181123016497911e-06,0.0001347184035740553,0.0033322049890670575,0.003720572729408846,0.00107216159082893,-69.91929919299193
0.0002447484654345378,2.8455433766413936e-06,0.00012679866661936769,0.003249716616585173,0.0036241092920157197,0.001023594774892015,-69.75929759297593
0.00023912434284109997,2.543616084396798e-06,0.00011930243361961095,0.0031655994360488713,0.0035265698285939793,0.0009769443874509452,-69.59929599295992
0.00023359527540614696,2.2721631953791667e-06,0.00011220979689692382,0.0030800879433985026,0.0034281651788969523,0.0009321495424644882,-69.43929439294392
0.0002281606644766004,2.0282854960738685e-06,0.00010550161481587233,0.002993415214294834,0.003329105779083381,0.0008891505590367894,-69.27929279292792
0.00022281988430679,1.8093402953033567e-06,9.915949242834973e-05,0.0029058118775870906,0.0032296005946175336,0.0008478889738272148,-69.11929119291193
0.00021757228305065734,1.612920759249803e-06,9.316576199574774e-05,0.002817505131042636,0.003129856096848291,0.000808307551164221,-68.95928959289593
0.00021241718374968066,1.4368367048872025e-06,8.750346343569357e-05,0.002728717804888837,0.0030300752887790984,0.0007703502909520116,-68.79928799287993
0.0002073538853157535,1.2790967692136933e-06,8.215632473797664e-05,0.002639667478176435,0.002930456784999379,0.0007339624344588575,-68.63928639286392
0.0002023816635082911,1.137891874367855e-06,7.71087423916861e-05,0.002550565652403233,0.0028311939501775778,0.0006990904680761997,-68.47928479284792
0.00019749977190485212,1.0115799115272052e-06,7.234576186300222e-05,0.0024616169862427956,0.0027324740999221772,0.0006656821251373787,-68.31928319283192
0.0001927074428645861,8.986715693949682e-07,6.78530581605595e-05,0.0023730185946126883,0.002634477767207229,0.0006336863858845601,-68.15928159281593
0.00018800388848384377,7.978172360540609e-07,6.361691652282838e-05,0.002284959414696906,0.0025373780369396326,0.0006030534756718632,-67.99927999279993
0.0001833883015433163,7.077949059816849e-07,5.962421325955456e-05,0.0021976196409146396,0.002441339950623492,0.0005737348614920603,-67.83927839278392
0.00017885985644607805,6.274990270506294e-07,5.586239677693159e-05,0.002111170230208121,0.0023465199824581813,0.0005456832469132611,-67.67927679276792
0.00017441771014594832,5.559302253759229e-07,5.2319468813908645e-05,0.002025772478413297,0.00225306558759853,0.0005188525655110686,-67.51927519275192
0.00017006100306560332,4.921858488790396e-07,4.8983965914806e-05,0.0019415776678831983,0.0021611148227124867,0.0004931979728804885,-67.35927359273592
0.00016578886000389532,4.3545127342177085e-07,4.5844941161269765e-05,0.0018587267859614765,0.0020707960384000633,0.00046867583731057016,-67.19927199271993
0.000161600391031859,3.849919182943862e-07,4.289194618451361e-05,0.0017773503133570992,0.001982227642491766,0.00044524372920335824,-67.03927039270393
0.00015749469237691486,3.4014592071605006e-07,4.011501347680616e-05,0.0016975680809557022,0.0018955179327301392,0.00042286040931721754,-66.87926879268792
0.00015347084729479526,3.003174218097003e-07,3.7504639019220004e-05,0.0016194891931218373,0.0018107649968576623,0.00040148581591287793,-66.71926719267192
0.00014952792692875003,2.6497041924064593e-07,3.505176524082731e-05,0.00154321201510376,0.001728056677692578,0.0003810810508789033,-66.55926559265592
0.00014566499115561051,2.3362314435057367e-07,3.274776432274315e-05,0.0014688242217503933,0.0016474706003730974,0.0003616083649114072,-66.39926399263992
0.00014188108941831336,2.0584292417144464e-07,3.058442185873203e-05,0.0013964029043915342,0.001569074258592751,0.00034303114182095417,-66.23926239262393
0.00013817526154451048,1.812414911621175e-07,2.8553920882474225e-05,0.0013260147324187352,0.001492925156336882,0.0003253138820376119,-66.07926079260793
0.00013454653855091812,1.5947070587167308e-07,2.6648826270055614e-05,0.0012577161658367724,0.0014190710013636178,0.00030842218538311054,-65.91925919259192
0.00013099394343307424,1.4021865999461467e-07,2.4862069524781623e-05,0.0011915537148344307,0.001347549946452281,0.0002923227331769423,-65.75925759257592
0.0001275164919402045,1.2320612944364596e-07,2.3186933950037026e-05,0.0011275642422490697,0.001278390874268755,0.0002769832697411544,-65.59925599255992
0.00012411319333491562,1.0818334912455666e-07,2.161704021460663e-05,0.0010657753046708512,0.001211613721569498,0.00026237258336639276,-65.43925439254392
0.00012078305113745854,9.492708305543379e-08,2.0146332313640144e-05,0.0010062055278490785,0.0011472298383832327,0.0002484604867995804,-65.27925279252793
0.00011752506385432559,8.323796532966189e-08,1.8769063927288586e-05,0.000948865012023034,0.0010852423777699778,0.00023521779731138547,-65.11925119251192
0.00011433822569097217,7.293808918038013e-08,1.7479785177955633e-05,0.0008937557628013621,0.0010256467117594702,0.00022261631639943193,-64.95924959249592
0.0001112215272484664,6.386882306507265e-08,1.6273329786091076e-05,0.0008408721432547154,0.0009684308691123379,0.0002106288091809289,-64.79924799247992
0.00010817395620390156,5.588883425508899e-08,1.5144802623512143e-05,0.0007902013429641463,0.0009135759906258151,0.00019922898352618763,-64.63924639246392
0.00010519449797441983,4.8872301888643615e-08,1.4089567662358895e-05,0.0007417238598790239,0.0008610567978176913,0.00018839146898224642,-64.47924479244791
0.00010228213636472127,4.270730283012026e-08,1.3103236316979763e-05,0.0006954139909805299,0.0008108420709650611,0.00017809179553358862,-64.31924319243193
9.943585419794577e-05,3.729435497639785e-08,1.218165617529263e-05,0.0006512403279164924,0.0007628951326447073,0.00016830637224473193,-64.15924159241592
9.665463392984716e-05,3.254510386569053e-08,1.132090011548337e-05,0.0006091662539673776,0.0007171743331165738,0.000159012465827278,-63.99923999239992
9.393745824618192e-05,2.838113957936214e-08,1.051725580327069e-05,0.0005691504389177898,0.0006736335341068218,0.00015018817917181477,-63.83923839238392
9.128331064326885e-05,2.4732931985937353e-08,9.767215564400058e-06,0.0005311473286400344,0.0006322225877796893,0.00014181242988294953,-63.67923679236792
8.86911759916844e-05,2.153887336247519e-08,9.067466626509477e-06,0.000495107626442085,0.0005928878079336414,0.00013386492885361228,-63.519235192351914
8.61600410830822e-05,1.8744418345233457e-08,8.41488172404773e-06,0.0004609787634887728,0.000555572430714248,0.00012632615891270733,-63.359233592335926
8.368889516013714e-05,1.63013120126327e-08,7.80651005951078e-06,0.0004287053558686566,0.0005202170624003171,0.0001191773535781386,-63.19923199231992
8.127673042964067e-05,1.4166897692437755e-08,7.23956861389716e-06,0.0003982296461468892,0.0004867601120881194,0.00011240047594524976,-63.03923039230392
7.8922542558776e-05,1.2303496815266405e-08,6.711433798960554e-06,0.00036949192751323934,0.00045513820736779113,0.00010597819773874889,-62.87922879228792
7.662533115463317e-05,1.0677853811401668e-08,6.219633443562911e-06,0.0003424309489018313,0.0004252865913538388,9.989387855429519e-05,-62.719227192271916
7.438410022702873e-05,9.260639670717186e-09,5.761839106192787e-06,0.0003169842997222142,0.00039713949969510644,9.413154531405884e-05,-62.55922559225591
7.219785863471435e-05,8.026008359529938e-09,5.335858705517622e-06,0.0002930887730979412,0.0003706305164465327,8.86758719587604e-05,-62.399223992239925
7.00656205150709e-05,6.951200816470671e-09,4.939629460676148e-06,0.0002706807067567256,0.00034569290793328914,8.351215939693704e-05,-62.23922239222392
6.798640569740134e-05,6.016191734995945e-09,4.5712111328917145e-06,0.00024969630095365836,0.0003222599339756864,7.862631573049039e-05,-62.07922079220792
6.595924009994448e-05,5.2033747858028194e-09,4.228779559890715e-06,0.00023007191303417478,0.0003002651360687958,7.400483677391286e-05,-61.91921919219192
6.398315611074892e-05,4.497282340911282e-09,3.910620474547731e-06,0.00021174432845532586,0.0002796426023229634,6.96347868830102e-05,-61.759217592175915
6.205719295255583e-05,3.884336135134268e-09,3.61512359914128e-06,0.0001946510082810962,0.00026032720916892846,6.550378010739905e-05,-61.59921599215991
6.01803970318526e-05,3.3526256425631203e-09,3.3407770065940057e-06,0.00017873031334934408,0.00024225484001343323,6.159996167958623e-05,-61.439214392143924
5.8351822272268135e-05,2.8917112578970343e-09,3.086161740084891e-06,0.00016392170547370404,0.00022536258119731494,5.791198985201519e-05,-61.27921279212792
5.657053043249584e-05,2.4924496571722857e-09,2.849946682457443e-06,0.00015016592619317772,0.00020958889575778817,5.44290180921129e-05,-61.11921119211192
5.483559140893387e-05,2.1468389717925618e-09,2.6308836669039564e-06,0.00013740515371484205,0.00019487377562965168,5.11406776440582e-05,-60.95920959209592
5.314608352324793e-05,1.8478816457063786e-09,2.427802820481807e-06,0.0001255831388113385,0.00018115887303671394,4.80370604647597e-05,-60.799207992079914
5.1501093795067166e-05,1.5894630599709515e-09,2.239608132110115e-06,0.00011464532053457537,0.00016838761192481262,4.510870254033992e-05,-60.63920639206391
4.989971820003383e-05,1.366244203522741e-09,2.0652732368033873e-06,0.00010453892269089433,0.00015650528037193507,4.234656758829435e-05,-60.47920479204792
4.8341061913434215e-05,1.1735668453660601e-09,1.9038374080204989e-06,9.521303209125496e-05,0.00014545910497955504,3.974203114942188e-05,-60.31920319203192
4.682423953964814e-05,1.007369823108011e-09,1.7544017501429426e-06,8.661865964348048e-05,0.00013519830830309467,3.728686507261011e-05,-60.15920159201592
4.534837532765768e-05,8.641152072178421e-10,1.6161255832411325e-06,7.870878539294876e-05,0.0001256741504190548,3.497322239459036e-05,-59.999199991999916
4.3912603372865704e-05,7.407232308854898e-10,1.488223012444287e-06,7.143838864426974e-05,0.00011683995575281062,3.279362261587821e-05,-59.83919839198391
4.251606780547896e-05,6.345149931088995e-10,1.369959674393229e-06,6.476446431025502e-05,0.00010865112630512031,3.074093737325521e-05,-59.67919679196791
4.115792296571671e-05,5.431620487803948e-10,1.2606496534277473e-06,5.864602663691246e-05,0.00010106514241810569,2.8808376508348956e-05,-59.51919519195191
3.9837333566109865e-05,4.646420951067682e-10,1.1596525603381427e-06,5.3044101445252795e-05,9.40415522137959e-05,2.6989474531114593e-05,-59.35919359193592
3.8553474841161544e-05,3.9720004964598784e-10,1.066370766694215e-06,4.792170801342125e-05,8.754195082132666e-05,2.5278077476320082e-05,-59.19919199191992
3.730553268464438e-05,3.39313892458605e-10,9.802467879529158e-07,4.324383169710897e-05,8.152995048359873e-05,2.366833015048542e-05,-59.039190391903915
3.609270377481062e-05,2.8966471416593443e-10,9.007608087369625e-07,3.8977388353352667e-05,7.597114260161442e-05,2.2154663766114902e-05,-58.87918879188791
3.491419568779774e-05,2.471104738268141e-10,8.274283438707563e-07,3.509118159377503e-05,7.083305273591735e-05,2.0731783959504276e-05,-58.71918719187191
3.376922699951388e-05,2.106630261724992e-10,7.597980289553801e-07,3.155585384896928e-05,6.608508954046471e-05,1.9394659187884874e-05,-58.55918559185591
3.2657027376288955e-05,1.7946802750175675e-10,6.974495344611783e-07,2.8343832177089174e-05,6.169848855586681e-05,1.8138509501192387e-05,-58.39918399183992
3.157683765457999e-05,1.5278737400666236e-10,6.399915975132199e-07,2.5429269697647986e-05,5.76462517371152e-05,1.6958795683312362e-05,-58.23918239182392
3.052790991002187e-05,1.2998386599606326e-10,5.870601657418788e-07,2.2787983476926102e-05,5.390308353655585e-05,1.5851208757263772e-05,-58.079180791807914
2.950950751611301e-05,1.1050782688338034e-10,5.383166477662339e-07,2.039738963500681e-05,5.0445324306712936e-05,1.4811659848419419e-05,-57.91917919179191
2.8520905192829717e-05,9.388543734116104e-11,4.934462650726924e-07,1.8236436387076295e-05,4.7250881730416046e-05,1.3836270399546317e-05,-57.75917759177591
2.756138904546087e-05,7.970857308953508e-11,4.5215650024368064e-07,1.6285535673868663e-05,4.42991609281463e-05,1.2921362731161484e-05,-57.59917599175991
2.6630256593956075e-05,6.762595973616849e-11,4.141756366814907e-07,1.4526493978643744e-05,4.157099383524105e-05,1.2063450940446597e-05,-57.43917439174392
2.572681679307922e-05,5.7335480244678604e-11,3.7925138516002735e-07,1.2942442871380877e-05,3.9048568385100375e-05,1.1259232131742964e-05,-57.279172791727916
2.4850390043660447e-05,4.8577490269283085e-11,3.471495927217318e-07,1.1517769765440537e-05,3.6715357979312985e-05,1.0505577971460985e-05,-57.119171191711914
2.4000308195236097e-05,4.1129014019927276e-11,3.1765302961812004e-07,1.0238049318184391e-05,3.455605167205263e-05,9.799526560072028e-06,-56.95916959169591
2.3175914540367492e-05,3.479870875301862e-11,2.905602501700678e-07,9.08997585532144e-06,3.2556485444567754e-05,9.13827461372015e-06,-56.79916799167991
2.237656380092678e-05,2.942249963311821e-11,2.6568452359770825e-07,8.061297149334008e-06,3.070357489635813e-05,8.51916994787893e-06,-56.639166391663906
2.160162210663598e-05,2.485979877421134e-11,2.428528310395205e-07,7.140749835475035e-06,2.898524963294931e-05,7.939704255396567e-06,-56.47916479164792
2.0850466966144265e-05,2.0990232919554497e-11,2.2190492514570827e-07,6.3179967046928274e-06,2.739038958621572e-05,7.3975061712080715e-06,-56.319163191631915
2.0122487230925868e-05,1.771081361296073e-11,2.0269244879211465e-07,5.583566071562479e-06,2.5908763462094075e-05,6.89033461595561e-06,-56.15916159161591
1.941708305227778e-05,1.4933491991942783e-11,1.850781096175685e-07,4.928793376962349e-06,2.4530969472349686e-05,6.416072410735669e-06,-55.99915999159991
1.87336658316948e-05,1.2583047620060684e-11,1.6893490723967057e-07,4.3457651498805895e-06,2.324837847186268e-05,5.9727201551914286e-06,-55.83915839158391
1.8071658164895716e-05,1.0595267184509785e-11,1.541454101514848e-07,3.827265420366532e-06,2.2053079590680916e-05,5.558390361184926e-06,-55.679156791567905
1.74304937797715e-05,8.915374515927487e-12,1.4060107944437196e-07,3.3667246462319394e-06,2.0937828420822327e-05,5.171301834315264e-06,-55.51915519155192
1.6809617468522687e-05,7.496678330282312e-12,1.2820163664026059e-07,2.9581711895982703e-06,1.9895997791439548e-05,4.8097742955971385e-06,-55.359153591535915
1.6208485014250396e-05,6.299408427527287e-12,1.1685447305003645e-07,2.5961853556978943e-06,1.8921531142406753e-05,4.4722232356758525e-06,-55.19915199151991
1.5626563112260315e-05,5.289714879661393e-12,1.0647409820330294e-07,2.2758559853631124e-06,1.800889848554161e-05,4.157154994027796e-06,-55.03915039150391
1.5063329286336115e-05,4.4388080653459555e-12,9.698162501877167e-08,1.992739574261874e-06,1.7153054924424827e-05,3.863162055682832e-06,-54.87914879148791
1.4518271800234565e-05,3.7222203155565346e-12,8.830428950381484e-08,1.7428218760242065e-06,1.6349401687982903e-05,3.5889185581011707e-06,-54.719147191471905
1.3990889564649852e-05,3.1191724749157158e-12,8.037500288639848e-08,1.5224819328074843e-06,1.559374961951621e-05,3.3331760009432143e-06,-54.559145591455916
1.3480692039890472e-05,2.6120309006579073e-12,7.313193419279184e-08,1.328458465418145e-06,1.488228505153231e-05,3.094759151586826e-06,-54.399143991439914
1.2987199134508506e-05,2.185842354882428e-12,6.6518121390122e-08,1.1578185456870983e-06,1.4211537987428081e-05,2.872562139369056e-06,-54.23914239142391
1.2509941100114538e-05,1.8279359305762427e-12,6.048110931412919e-08,1.007928466224605e-06,1.3578352503589203e-05,2.6655447316589847e-06,-54.07914079140791
1.2048458422608624e-05,1.527582618528187e-12,5.497261269947731e-08,8.764267168020418e-07,1.2979859279692761e-05,2.4727287850053674e-06,-53.919139191391906
1.1602301710052178e-05,1.2757043978000403e-12,4.994820272275285e-08,7.611989722621042e-07,1.2413450160741433e-05,2.2931948647433404e-06,-53.759137591375904
1.1171031577400649e-05,1.0646258407599318e-12,4.536701555694223e-08,6.603549938942165e-07,1.1876754651477648e-05,2.126079026591236e-06,-53.599135991359915
1.0754218528312005e-05,8.878621858670671e-13,4.1191481520840056e-08,5.722073444779559e-07,1.1367618242172986e-05,1.970569753918289e-06,-53.43913439134391
1.035144283424154e-05,7.39938665943352e-13,3.738707348760755e-08,4.952518165517742e-07,1.0884082464219589e-05,1.8259050445176958e-06,-53.27913279132791
9.96229441102746e-06,6.162366028579427e-13,3.392207329365355e-08,4.281494737704161e-07,1.0424366574328134e-05,1.691369640874936e-06,-53.11913119131191
9.586372693167558e-06,5.128624056835468e-13,3.076735496232749e-08,3.6971020634453e-07,9.98685076733682e-06,1.5662923980800712e-06,-52.959129591295905
9.223286505981567e-06,4.2653615099846513e-13,2.789618362663712e-08,3.188777033888579e-07,9.570060819533214e-06,1.4500437836916522e-06,-52.7991279912799
8.872653935848811e-06,3.5449689209897726e-13,2.52840291015097e-08,2.7471574742963125e-07,9.172654066876845e-06,1.3420335040209933e-06,-52.639126391263915
8.534102198705402e-06,2.9442224807336727e-13,2.290839311908291e-08,2.3639573923398658e-07,8.79340662548072e-06,1.2417082514661757e-06,-52.47912479124791
8.207267506980434e-06,2.443601723882025e-13,2.0748649300290683e-08,2.0318536442994535e-07,8.431201765070844e-06,1.1485495676869092e-06,-52.31912319123191
7.891794935144699e-06,2.0267110120030984e-13,1.8785894992678578e-08,1.7443831699863776e-07,8.085019349807118e-06,1.062071817571774e-06,-52.15912159121591
7.587338284040824e-06,1.6797894045245454e-13,1.700281415810565e-08,1.4958499856407062e-07,7.753926264741942e-06,9.818202691097336e-07,-51.999119991199905
7.293559944158325e-06,1.3912957353104698e-13,1.5383550544843477e-08,1.281241164102411e-07,7.437067750242984e-06,9.07369274437059e-07,-51.8391183911839
7.01013075801172e-06,1.1515576273476e-13,1.391359042670228e-08,1.0961510725984533e-07,7.133659570854032e-06,8.383205474882188e-07,-51.679116791167914
6.736729881774715e-06,9.52474822644941e-14,1.2579654237310036e-08,9.367131799939789e-08,6.842980949258905e-06,7.743015338356127e-07,-51.51911519115191
6.473044646318662e-06,7.872686158474378e-14,1.1369596470650443e-08,7.995387868569082e-08,6.564368200201865e-06,7.149638684571298e-07,-51.35911359113591
6.218770417797564e-06,6.50270390261639e-14,1.0272313259537797e-08,6.816620727811803e-08,6.297209003362258e-06,6.599819173222561e-07,-51.199111991119906
5.973610457917701e-06,5.367432917747666e-14,9.277657081987309e-09,5.80490895768285e-08,6.040937258250846e-06,6.090513988372669e-07,-51.039110391103904
5.7372757840241865e-06,4.4273196359842666e-14,8.376358081521678e-09,4.937628177962414e-08,5.795028468158529e-06,5.618880813369059e-07,-50.8791087910879
5.509485029132218e-06,3.649360237411748e-14,7.559951521445821e-09,4.195058687817992e-08,5.558995604025446e-06,5.182265529541066e-07,-50.71910719107191
5.289964302025418e-06,3.006036156510168e-14,6.820710925120419e-09,3.5600359778196915e-08,5.332385402789097e-06,4.778190603407413e-07,-50.55910559105591
5.078447047539309e-06,2.4744191616516106e-14,6.151586484368904e-09,3.017639953454296e-08,5.114775058302412e-06,4.404344128505975e-07,-50.39910399103991
4.874673907142323e-06,2.035419572236139e-14,5.546148346446871e-09,2.5549190430931655e-08,4.905769266273897e-06,4.058569489308434e-07,-50.239102391023906
4.678392579922789e-06,1.673155203633302e-14,4.998534416591991e-09,2.1606456797431884e-08,4.704997587868365e-06,3.7388556160026643e-07,-50.0791007910079
4.4893576840850616e-06,1.374422058202526e-14,4.50340233812795e-09,1.8250999443922035e-08,4.512112099611332e-06,3.443327800209719e-07,-49.9190991909919
4.3073306190534745e-06,1.1282506974888407e-14,4.0558853355130564e-09,1.5398784392087414e-08,4.326785300063581e-06,3.1702390429550104e-07,-49.7590975909759
4.132079428278372e-06,9.255347103789134e-15,3.651551627678886e-09,1.2977257213305725e-08,4.148708246374703e-06,2.9179619074303123e-07,-49.59909599095991
3.9633786628335625e-06,7.587197982852263e-15,3.286367139574489e-09,1.0923858727235534e-08,3.9775888962875704e-06,2.684980850265528e-07,-49.43909439094391
3.8010092458908526e-06,6.215437860252009e-15,2.9566612590957814e-09,9.18472009009606e-09,3.813150633455483e-06,2.4698850061777927e-07,-49.279092790927905
3.6447583381519472e-06,5.088193829145415e-15,2.6590954046028658e-09,7.71351740767576e-09,3.65513095605242e-06,2.2713614019771743e-07,-49.1190911909119
3.4944192043147517e-06,4.162528029325381e-15,2.3906341850876236e-09,6.470467952233966e-09,3.503280310614601e-06,2.0881885769865673e-07,-48.9590895908959
3.3497910806463127e-06,3.4029244008557682e-15,2.148518950807257e-09,5.42145185156081e-09,3.357361054851605e-06,1.9192305879761624e-07,-48.7990879908799
3.210679043730829e-06,2.780027147632181e-15,1.930243546916609e-09,4.5372447600313274e-09,3.217146534817804e-06,1.763431377720338e-07,-48.63908639086391
3.07689388045694e-06,2.2695898413372773e-15,1.7335320963675052e-09,3.792848523374287e-09,3.082420263346271e-06,1.6198094872588055e-07,-48.47908479084791
2.948251959305009e-06,1.851600659691483e-15,1.5563186511591611e-09,3.166908219162129e-09,2.9529751880269307e-06,1.4874530928830475e-07,-48.319083190831904
2.824575102990753e-06,1.5095547907118519e-15,1.3967285629703257e-09,2.6412052018791314e-09,2.828613038265157e-06,1.3655153497743861e-07,-48.1590815908159
2.705690462518336e-06,1.2298497032708912e-15,1.2530614353369153e-09,2.20021691301526e-09,2.709143742096538e-06,1.2532100250926953e-07,-47.9990799907999
2.591430392692184e-06,1.0012829167640188e-15,1.123775529905043e-09,1.8307352409980868e-09,2.5943849044643697e-06,1.1498074041541544e-07,-47.8390783907839
2.4816323291332895e-06,8.146352124604958e-16,1.0074735089373012e-09,1.5215361407927309e-09,2.4841613395976545e-06,1.0546304541436411e-07,-47.67907679076791
2.376138666842319e-06,6.623250124422222e-16,9.02889405223675e-10,1.2630940562853316e-09,2.378304650966153e-06,9.670512305833628e-08,-47.519075190751906
2.274796640348663e-06,5.381219907325523e-16,8.08876718890158e-10,1.0473354374489694e-09,2.276652853043124e-06,8.864875125241002e-08,-47.3590735907359
2.1774582054810247e-06,4.3690994469137256e-16,7.243975483476071e-10,8.674263157668923e-10,2.179050029782049e-06,8.123996531398398e-08,-47.1990719907199
2.0839799227923037e-06,3.5449060185271695e-16,6.485126698191323e-10,7.175895021015582e-10,2.085346025318715e-06,7.442876330920126e-08,-47.0390703907039
1.994222842668328e-06,2.8742141794785156e-16,5.803724865614417e-10,5.92947507412523e-10,1.9953961629497237e-06,6.816883046854727e-08,-46.879068790687896
1.9080523921470323e-06,2.3288157807407953e-16,5.192087750884272e-10,4.893877643298696e-10,1.9090609889193323e-06,6.24172815466869e-08,-46.71906719067191
1.8253382634718765e-06,1.8856138050276563e-16,4.643271614453776e-10,4.034471520794725e-10,1.8262060379739627e-06,5.713442005167842e-08,-46.559065590655905
1.7459543044005728e-06,1.5257099159974816e-16,4.151002659001761e-10,3.322132037476931e-10,1.7467016180227916e-06,5.2283513326173185e-08,-46.3990639906399
1.6697784102873804e-06,1.2336523618843743e-16,3.7096145934113195e-10,2.732397081030716e-10,1.6704226115781899e-06,4.7830582518064084e-08,-46.2390623906239
1.5966924179548014e-06,9.968165186746493e-17,3.3139917922753654e-10,2.2447471253354582e-10,1.597248291946244e-06,4.374420653044541e-08,-46.0790607906079
1.526582001367994e-06,8.048950637008855e-17,2.959517571526332e-10,1.8419919312629537e-10,1.5270621523987625e-06,3.999533909071675e-08,-45.919059190591895
1.4593365691227886e-06,6.494786923415791e-17,2.642027139738827e-10,1.5097488619361885e-10,1.459751746787904e-06,3.6557138126306164e-08,-45.75905759057591
1.39484916375591e-06,5.2371155634051916e-17,2.3577648206368775e-10,1.2359997599058392e-10,1.3952085402663354e-06,3.340480667987292e-08,-45.599055990559904
1.333016362883943e-06,4.220083196196365e-17,2.103345175564842e-10,1.0107150903370684e-10,1.3333277689527341e-06,3.051544464007414e-08,-45.4390543905439
1.2737381821751929e-06,3.398219866360691e-17,1.875717685342017e-10,8.25535590850135e-11,1.2740083075367942e-06,2.786791060509014e-08,-45.2790527905279
1.2169179801568118e-06,2.7345353506842974e-17,1.6721346792039278e-10,6.735030101780304e-11,1.2171525439530955e-06,2.544269323520715e-08,-45.1190511905119
1.1624623648575422e-06,2.1989594239348986e-17,1.4901222246043715e-10,5.4883268686921265e-11,1.162666260370679e-06,2.322179148791845e-08,-44.959049590495894
1.1102811022845368e-06,1.767064879005142e-17,1.3274537156740038e-10,4.4672173617348944e-11,1.1104585198473923e-06,2.1188603164287696e-08,-44.799047990479906
1.0602870267309661e-06,1.4190228237454308e-17,1.1821259202526134e-10,3.63187496199127e-11,1.0604415580868014e-06,1.9327821228818915e-08,-44.6390463904639
1.012395952909513e-06,1.1387486425670638e-17,1.0523372657724115e-10,2.949316496864558e-11,1.0125306798124465e-06,1.7625337396856474e-08,-44.4790447904479
9.665265899051017e-07,9.132043462770968e-18,9.36468162999272e-11,2.3922609981331756e-11,9.66644159340515e-07,1.6068152513651163e-08,-44.3190431904319
9.226004569388292e-07,7.318290979238135e-18,8.330631838596753e-11,1.9381725023383238e-11,9.227031449895568e-07,1.4644293277782269e-08,-44.159041590415896
8.805418009335262e-07,5.86074711916099e-18,7.408149254061864e-11,1.568458325008551e-11,8.806315670151777e-07,1.3342734888647354e-08,-43.99903999039989
8.402775158700483e-07,4.69027058512097e-18,6.585494065093544e-11,1.2677984826771681e-11,8.403560488002163e-07,1.2153329223310527e-08,-43.839038390383905
8.017370639220666e-07,3.750977159416306e-18,5.852128572070793e-11,1.0235855815326221e-11,8.018058210673537e-07,1.106673817219721e-08,-43.6790367903679
7.648523983559667e-07,2.9977302269703403e-18,5.1985977288578045e-11,8.254576176883991e-12,7.6491263891243e-07,1.0074371785994665e-08,-43.5190351903519
7.295578881812084e-07,2.3940999658605543e-18,4.6164211669488594e-11,6.649088107510081e-12,7.296107014833795e-07,9.168330907725612e-09,-43.3590335903359
6.957902445355283e-07,1.9107049109197297e-18,4.097995638877901e-11,5.349658803740631e-12,6.958365741526315e-07,8.341353984372787e-09,-43.199031990319895
6.634884487882723e-07,1.5238652486671102e-18,3.6365069121038944e-11,4.299191279876711e-12,6.635291130501971e-07,7.586767771687622e-09,-43.03903039030389
6.3259368234423e-07,1.2145100601504244e-18,3.22585023091619e-11,3.4509934932619386e-12,6.32629391841247e-07,6.898441663986491e-09,-42.879028790287904
6.030492581294446e-07,9.67291282653098e-19,2.8605585429141127e-11,2.7669301820670417e-12,6.030806306460231e-07,6.270745397862532e-09,-42.7190271902719
5.748005537396702e-07,7.698658176127824e-19,2.5357377588935043e-11,2.2158938342434125e-12,5.748281270118633e-07,5.698509894882895e-09,-42.5590255902559
5.477949462313372e-07,6.123143062107829e-19,2.2470083810524204e-11,1.7725413916297463e-12,5.478191888571517e-07,5.176991023537275e-09,-42.3990239902399
5.219817485342424e-07,4.866709032962143e-19,1.9904528948194235e-11,1.416251914163796e-12,5.220030693155914e-07,4.701836075013392e-09,-42.239022390223894
4.973121474644812e-07,3.86543133578749e-19,1.7625683747644816e-11,1.130267714314028e-12,4.973309034163297e-07,4.269052760833183e-09,-42.07902079020789
4.7373914331558046e-07,3.068048002354365e-19,1.5602238054093883e-11,9.009876183713694e-13,4.7375564654155974e-07,3.874980553041555e-09,-41.919019190191904
4.5121749100522645e-07,2.4334809089262587e-19,1.3806216637039455e-11,7.17386188864897e-13,4.512320146082957e-07,3.5162641995340873e-09,-41.7590175901759
4.297036427545107e-07,1.9288361755214262e-19,1.2212633518420738e-11,5.705370969393302e-13,4.297164259253189e-07,3.1898292582853765e-09,-41.5990159901599
4.0915569227617317e-07,1.5277924090443765e-19,1.0799181072946047e-11,4.532224901435984e-13,4.0916694467988903e-07,2.892859504730422e-09,-41.439014390143896
3.8953332044790773e-07,1.2093025232423988e-19,9.545950517444425e-12,3.5961326680808404e-13,3.895432260118129e-07,2.622776076397374e-09,-41.279012790127894
3.707977424465023e-07,9.56548899062106e-20,8.435180723101609e-12,2.8500773452170215e-13,3.7080646263505554e-07,2.377218228125526e-09,-41.11901119011189
3.5291165631821336e-07,7.56103066341666e-20,7.451032572998919e-12,2.2561827518889118e-13,3.5291933296913717e-07,2.1540255798591092e-09,-40.9590095900959
3.358391929605838e-07,5.972503713397148e-20,6.579386349911863e-12,1.783974291758525e-13,3.3584595074442264e-07,1.9512217471213163e-09,-40.7990079900799
3.195458674906448e-07,4.7144763726549186e-20,5.8076598780775726e-12,1.4089630259143096e-13,3.195518160468727e-07,1.7669992518713747e-09,-40.6390063900639
3.0399853197429683e-07,3.718879484145807e-20,5.124645359647368e-12,1.1114944267063973e-13,3.0400376776913633e-07,1.5997056185599797e-09,-40.479004790047895
2.8916532949148535e-07,2.9315165589956427e-20,4.520363043703602e-12,8.758135708046373e-14,2.8916993743591547e-07,1.4478305668554694e-09,-40.31900319003189
2.7501564951173594e-07,2.3092672940800437e-20,3.9859300447545555e-12,6.89307080155214e-14,2.750197043725118e-07,1.3099942187375418e-09,-40.15900159001589
2.615200845544792e-07,1.8178484062033032e-20,3.513442790124921e-12,5.4188920110179855e-14,2.615236521862076e-07,1.184936243474452e-09,-39.9989999899999
2.486503881086071e-07,1.4300220326176283e-20,3.0958717230845886e-12,4.255052681853318e-14,2.486535265308713e-07,1.0715058694373962e-09,-39.8389983899839
2.363794337856666e-07,1.124163291648581e-20,2.7269670222439347e-12,3.3373063483520665e-14,2.3638219412576358e-07,9.68652696783617e-10,-39.6789967899679
2.2468117568112802e-07,8.831158444457614e-21,2.4011742189090103e-12,2.6144714022055402e-14,2.246836030000698e-07,8.754182497801886e-10,-39.518995189951895
2.135306099182053e-07,6.932782248901976e-21,2.113558703860891e-12,2.0458246400650326e-14,2.1353274393516252e-07,7.909282119639565e-10,-39.35899358993589
2.0290373734880663e-07,5.4387494031206605e-21,1.859738214419496e-12,1.5990041917562242e-14,2.0290561307706838e-07,7.143852914579965e-10,-39.19899198991989
1.927775273862603e-07,4.263754036484221e-21,1.6358224826159117e-12,1.2483244809008383e-14,1.92779175691992e-07,6.450626676108425e-10,-39.03899038990389
1.8312988294461365e-07,3.340310544203218e-21,1.4383593066834636e-12,9.734240251632341e-15,1.8313133103816393e-07,5.822979737080441e-10,-38.8789887898879
1.7393960645943663e-07,2.6150689934054164e-21,1.2642863816707881e-12,7.581817427919236e-15,1.7394087832763834e-07,5.254877738428732e-10,-38.718987189871896
1.651863669652493e-07,2.0458842746410874e-21,1.1108882914955897e-12,5.8984957622453055e-15,1.6518748375203859e-07,4.740824951402362e-10,-38.558985589855894
1.5685066820484612e-07,1.5994865153710908e-21,9.757581248469445e-13,4.583591540512255e-15,1.5685164854656408e-07,4.2758177941878837e-10,-38.39898398983989
1.4891381774603287e-07,1.249630762778517e-21,8.56763231604998e-13,3.557682886873436e-15,1.489146780669486e-07,3.855302210654373e-10,-38.23898238982389
1.413578970815135e-07,9.756284108426025e-22,7.520146854201042e-13,2.7581967875961258e-15,1.413586518543967e-07,3.4751346039660367e-10,-38.078980789807886
1.3416573268787278e-07,7.611824657493412e-22,6.59840062275297e-13,2.1358952501027116e-15,1.3416639466383106e-07,3.131546041037418e-10,-37.9189791897919
1.273208680199073e-07,5.934644630562825e-22,5.787591846963188e-13,1.6520810115636436e-15,1.273214484311736e-07,2.821109465389196e-10,-37.758977589775895
1.2080753641678536e-07,4.623834350856512e-22,5.074625171826081e-13,1.2763783154719386e-15,1.208080451556813e-07,2.540709675999265e-10,-37.59897598975989
1.1461063489683007e-07,3.6000739500205426e-22,4.447919307834843e-13,9.849726762316071e-16,1.1461108067373389e-07,2.2875158483397535e-10,-37.43897438974389
1.0871569881799124e-07,2.8010585219052825e-22,3.89723583876038e-13,7.592164979740485e-16,1.0871608930079189e-07,2.0589563910432301e-10,-37.27897278972789
1.0310887738140998e-07,2.177883021684306e-22,3.413526924229053e-13,5.845259261602608e-16,1.0310921931862854e-07,1.852695947636986e-10,-37.118971189711885
9.777690995575843e-08,1.6921876531258173e-22,2.988799865790567e-13,4.495092246492712e-16,9.77772092852544e-08,1.6666143676116263e-10,-36.9589695896959
9.270710320040244e-08,1.3139054093051944e-22,2.6159967173185133e-13,3.4527896924051766e-16,9.270736514535326e-08,1.4987874848270223e-10,-36.798967989679895
8.788730896573993e-08,1.0194860446654254e-22,2.2888873112798366e-13,2.649099877000006e-16,8.788753811938116e-08,1.3474695539798483e-10,-36.63896638966389
8.330590294942584e-08,7.904967266496678e-23,2.001974243740881e-13,2.0301270901604332e-16,8.330610334986301e-08,1.2110772076326968e-10,-36.47896478964789
7.895176408753639e-08,6.125202802196435e-23,1.7504085148444648e-13,1.5539777940834762e-16,7.895193928378572e-08,1.0881748072014032e-10,-36.31896318963189
7.481425466008665e-08,4.742883696359454e-23,1.5299146596101453e-13,1.188127583809437e-16,7.481440777036542e-08,9.774610713746266e-11,-36.158961589615885
7.088320109066268e-08,3.670000164541486e-23,1.3367243278370955e-13,9.073566715327724e-17,7.088333485383116e-08,8.77756874757206e-11,-35.998959989599896
6.714887542030897e-08,2.8378621672639815e-23,1.167517383032249e-13,6.921332018936861e-17,6.714899224126062e-08,7.879941181387725e-11,-35.838958389583894
6.360197743616589e-08,2.1928964214693333e-23,1.0193696899219586e-13,5.2734886697414065e-17,6.36020794258698e-08,7.072055797429768e-11,-35.67895678956789
6.023361743573164e-08,1.6933492719662932e-23,8.897068493816485e-14,4.013313070865303e-17,6.023370644654972e-08,6.345156641563244e-11,-35.51895518955189
5.7035299607986565e-08,1.3067020664103626e-23,7.762632195802604e-14,3.0507368634480726e-17,5.70353772648159e-08,5.691319724141856e-11,-35.358953589535886
5.399890601300554e-08,1.0076465363208502e-23,6.770456337212235e-14,2.3163444873023845e-17,5.399897374073237e-08,5.103376229749677e-11,-35.198951989519884
5.1116681142043363e-08,7.765000014389684e-24,5.903012888202816e-14,1.7567025619029723e-17,5.111674018973928e-08,4.574842590806617e-11,-35.038950389503896
4.8381217040469555e-08,5.979657526785764e-24,5.1448933725819345e-14,1.3307301880871417e-17,4.8381268502710594e-08,4.0998568331815407e-11,-34.87894878948789
4.578543897629512e-08,4.601641359059688e-24,4.482557640740073e-14,1.006881755557821e-17,4.5785483811940354e-08,3.6731206509461596e-11,-34.71894718947189
4.3322591637414497e-08,3.53875772319029e-24,3.9041117874481354e-14,7.609631426553853e-18,4.332263068614201e-08,3.289846712522193e-11,-34.55894558945589
4.098622584105803e-08,2.7195089887052087e-24,3.3991119109265127e-14,5.744410412782365e-18,4.098625983792155e-08,2.945710742018736e-11,-34.398943989439886
3.87701857393298e-08,2.0884869841568847e-24,2.958390774729933e-14,4.331357066745506e-18,3.8770215327568904e-08,2.6368079577903245e-11,-34.23894238942388
3.666859650506993e-08,1.602782726753692e-24,2.5739047598743074e-14,3.2621145106033695e-18,3.6668622247379646e-08,2.3596134854188317e-11,-34.078940789407895
3.4675852482655346e-08,1.2291903433530176e-24,2.2385987853511013e-14,2.453980485516456e-18,3.467587487109718e-08,2.1109463946679113e-11,-33.91893918939189
3.278660578872351e-08,9.42031081226982e-25,1.9462871344103686e-14,1.8439098980013885e-18,3.278662525343876e-08,1.887937039690702e-11,-33.75893758937589
3.099575534815981e-08,7.214611179091597e-25,1.6915483550546715e-14,1.3839008446915478e-18,3.099577226502726e-08,1.687997409090342e-11,-33.59893598935989
2.9298436351059107e-08,5.521565580264925e-25,1.4696326090453437e-14,1.0374494416010621e-18,2.9298451048422647e-08,1.508794217525798e-11,-33.438934389343885
2.7690010116726022e-08,4.2229228282049245e-25,1.276380027048336e-14,7.768292973126648e-19,2.769002288130312e-08,1.3482244935931954e-11,-33.27893278932788
2.6166054351136388e-08,3.227495617690731e-25,1.1081487907346455e-14,5.810064304956222e-19,2.61660654332053e-08,1.2043934398551705e-11,-33.118931189311894
2.4722353784627852e-08,2.4650162324163586e-25,9.61751807849262e-15,4.340432134390426e-19,2.4722363402579974e-08,1.0755943602878738e-11,-32.95892958929589
2.3354891176942643e-08,1.8813756193890403e-25,8.344009754005362e-15,3.2387817927030854e-19,2.3354899521276276e-08,9.602904682017086e-12,-32.79892798927989
2.205983867707671e-08,1.4349370392686282e-25,7.236581409231632e-15,2.4139434740002165e-19,2.2059845913899515e-08,8.570984039965513e-12,-32.63892638926389
2.0833549525739144e-08,1.0936838173648616e-25,6.2739197378364236e-15,1.7970873675642864e-19,2.083355579983859e-08,7.647733070526043e-12,-32.478924789247884
1.967255008854813e-08,8.330140612132798e-26,5.4374004910881795e-15,1.3363123267127265e-19,1.967255552608225e-08,6.821952997418875e-12,-32.31892318923188
1.8573532208426146e-08,6.340368278518957e-26,4.710755273677827e-15,9.925295503143188e-20,1.857353691928067e-08,6.083572540749571e-12,-32.15892158921589
1.7533345865972723e-08,4.8225666958970863e-26,4.079778840334953e-15,7.363352727322811e-20,1.7533349945825197e-08,5.42353722964142e-12,-31.99891998919989
1.654899213691896e-08,3.6655876341672143e-26,3.5320720708449184e-15,5.456378039407113e-20,1.6548995669045596e-08,4.833709285759168e-12,-31.83891838918389
1.5617616436071085e-08,2.784265056430766e-26,3.056816362652557e-15,4.03859206532099e-20,1.5617619492927835e-08,4.306777098388926e-12,-31.678916789167886
1.4736502037466917e-08,2.1133875903865983e-26,2.6445756779814356e-15,2.9857415444868184e-20,1.4736504682072454e-08,3.83617339944808e-12,-31.518915189151883
1.3903063860762687e-08,1.6030583663502566e-26,2.2871229233683117e-15,2.2048097589488457e-20,1.3903066147907657e-08,3.416001326945492e-12,-31.35891358913588
1.3114842514169711e-08,1.2151254671121993e-26,1.97728773001785e-15,1.6262477997750397e-20,1.3114844491473704e-08,3.0409676386246986e-12,-31.198911989119892
1.2369498584545702e-08,9.204379513488292e-27,1.7088230490535007e-15,1.1981163906877423e-20,1.2369500293380732e-08,2.706322404372257e-12,-31.03891038910389
1.166480716553519e-08,6.967380314456753e-27,1.4762882815919316e-15,8.816739008833072e-21,1.1664808641832286e-08,2.4078045669928445e-12,-30.878908789087887
1.0998652614927238e-08,5.270430893049163e-27,1.2749469340718774e-15,6.4805766058437556e-21,1.0998653889880653e-08,2.1415928166251755e-12,-30.718907189071885
1.0369023532676362e-08,3.984045917131891e-27,1.1006770284088931e-15,4.757907564032466e-21,1.0369024633358147e-08,1.9042612748514243e-12,-30.558905589055883
9.774007951296485e-09,3.009567948838199e-27,9.49892707870409e-16,3.489113041304349e-21,9.774008901192682e-09,1.6927395308476787e-12,-30.39890398903988
9.211788730601752e-09,2.2718809871600704e-27,8.194756662277706e-16,2.5557052660113086e-21,9.211789550079975e-09,1.5042766141143134e-12,-30.23890238902389
8.680639149021335e-09,1.7138334184213494e-27,7.067151925516379e-16,1.8698345646113537e-21,8.680639855738397e-09,1.336408526762757e-12,-30.07890078900789
8.178918683968461e-09,1.2919724203337084e-27,6.092557694713387e-16,1.366445414116069e-21,8.178919293225597e-09,1.1869289933400043e-12,-29.918899188991887
7.70506897398394e-09,9.732837777053284e-28,5.250512910349359e-16,9.974200161092486e-22,7.705069499036228e-09,1.0538631180363724e-12,-29.758897588975884
7.257609955616853e-09,7.327019252133057e-28,4.523250794585931e-16,7.27211200506038e-22,7.257610407942659e-09,9.354436681206194e-13,-29.59889598895988
6.835136168234781e-09,5.512096175026031e-28,3.8953497978936855e-16,5.295899406269132e-22,6.835136557770291e-09,8.300897288231032e-13,-29.43889438894388
6.436313220184137e-09,4.143886449359888e-28,3.353428993796025e-16,3.85225992942246e-22,6.4363135555274214e-09,7.363874988726743e-13,-29.278892788927877
6.059874409942549e-09,3.113153337069738e-28,2.8858823646164487e-16,2.798904802514312e-22,6.0598746985310645e-09,6.53073017694959e-13,-29.11889118891189
5.704617496119503e-09,2.3371941145418615e-28,2.4826471024044367e-16,2.0312218490386422e-22,5.704617744384417e-09,5.790166350886506e-13,-28.958889588895886
5.369401610373742e-09,1.7534389995785182e-28,2.135001648721594e-16,1.4723914252021504e-22,5.3694018238740544e-09,5.132090521894996e-13,-28.798887988879883
5.0531443075177155e-09,1.314583405089621e-28,1.83538972428799e-16,1.066070406530893e-22,5.053144491056795e-09,4.547487788677209e-13,-28.63888638886388
4.7548187472809435e-09,9.848888829575214e-29,1.577267063118054e-16,7.709836780446559e-23,4.754818905007727e-09,4.0283086753177097e-13,-28.47888478884788
4.473451002395953e-09,7.37374188232073e-29,1.3549679732383789e-16,5.569307126718116e-23,4.473451137892806e-09,3.5673679676365275e-13,-28.318883188831876
4.2081174878602284e-09,5.516838019637388e-29,1.1635892040287504e-16,4.0184062498617443e-23,4.208117604219189e-09,3.15825390411049e-13,-28.158881588815888
3.957942506409262e-09,4.1247168466961583e-29,9.98888914551057e-17,2.896030964089617e-23,3.957942606298183e-09,2.795246688224956e-13,-27.998879988799885
3.722095905415493e-09,3.0817659626137303e-29,8.57198813128804e-17,2.084727279721787e-23,3.722095991135395e-09,2.47324538935818e-13,-27.838878388783883
3.49979084059879e-09,2.3009478402440486e-29,7.353477805086613e-17,1.4989667030723735e-23,3.499790914133583e-09,2.187702390110754e-13,-27.67887678876788
3.290281642103727e-09,1.716783376861488e-29,6.305955012367326e-17,1.076543071837414e-23,3.290281705163288e-09,1.9345646202315362e-13,-27.518875188751878
3.0928617786604907e-09,1.2800467495127e-29,5.405748139970523e-17,7.722670812005428e-24,3.09286183271798e-09,1.7102208917390156e-13,-27.358873588735875
2.9068619157052848e-09,9.537570665425318e-30,4.6324165475109934e-17,5.533505214111142e-24,2.9068619620294554e-09,1.5114547172068543e-13,-27.198871988719887
2.7316480634884355e-09,7.101519964706787e-30,3.9683160937469767e-17,3.960315742686514e-24,2.7316481031716007e-09,1.3354020541260486e-13,-27.038870388703884
2.5666198113481085e-09,5.2840444453074524e-30,3.3982221756940236e-17,2.8311050785920212e-24,2.5666198453303333e-09,1.1795134733654996e-13,-26.878868788687882
2.4112086444704556e-09,3.9290107536239666e-30,2.909002792973301e-17,2.0215237756997434e-24,2.4112086735604857e-09,1.0415202995681047e-13,-26.71886718867188
2.2648763395975903e-09,2.9194536119584062e-30,2.4893351075931352e-17,1.4417780397136373e-24,2.2648763644909427e-09,9.194043163342999e-14,-26.558865588655877
2.127113436279108e-09,2.1678116532161805e-30,2.1294598068579094e-17,1.0271045358736557e-24,2.127113457573707e-09,8.113706697050729e-14,-26.398863988639874
1.997437780394502e-09,1.6085816866400523e-30,1.8209683091785544e-17,7.30848863585891e-25,1.997437798604186e-09,7.158236401714881e-14,-26.238862388623886
1.8753931367996423e-09,1.1927963446283495e-30,1.556618492215238e-17,5.194421565442226e-25,1.875393152365828e-09,6.313449865776256e-14,-26.078860788607884
1.76054786807397e-09,8.838754777718256e-31,1.3301751814664982e-17,3.6875973809815756e-25,1.7605478813757223e-09,5.566745951860217e-14,-25.91885918859188
1.6524936764625408e-09,6.545117935748775e-31,1.1362721251685708e-17,2.614848254488908e-25,1.6524936878252622e-09,4.9069319414556455e-14,-25.75885758857588
1.550844406222596e-09,4.843345760448632e-31,9.70292607022625e-18,1.8520221303561623e-25,1.5508444159255222e-09,4.3240691792071893e-14,-25.598855988559876
1.4552349036943665e-09,3.5815834726911023e-31,8.282662195757048e-18,1.3102149210345868e-25,1.455234911977029e-09,3.8093352815939535e-14,-25.438854388543874
1.3653199325232364e-09,2.6467095639806935e-31,7.067796448487661e-18,9.258392708800393e-26,1.3653199395910327e-09,3.354901172261325e-14,-25.278852788527885
1.2807731415635633e-09,1.954515424443316e-31,6.028995710053609e-18,6.534695317736145e-26,1.280773147592559e-09,2.95382138414445e-14,-25.118851188511883
1.2012860830944252e-09,1.442359513728855e-31,5.141061197220605e-18,4.6069317298174805e-26,1.2012860882354863e-09,2.599936228674577e-14,-24.95884958849588
1.1265672790735557e-09,1.0636764667327133e-31,4.382353730458404e-18,3.244104965855928e-26,1.1265672834559094e-09,2.28778457649816e-14,-24.798847988479878
1.0563413332491194e-09,7.838756684846726e-32,3.734297749288091e-18,2.281784927545691e-26,1.0563413369834171e-09,2.0125261238245945e-14,-24.638846388463875
9.90348087038422e-10,5.772798829403004e-32,3.180953448366137e-18,1.6030652665275353e-26,9.903480902193755e-10,1.7698721351548756e-14,-24.478844788447873
9.283418171690466e-10,4.2484182791381736e-32,2.7086478191852497e-18,1.1249271272952302e-26,9.283418198776944e-10,1.556023758008474e-14,-24.318843188431885
8.700904731615548e-10,3.1244222366210834e-32,2.3056566090318797e-18,7.884865022392347e-27,8.700904754672113e-10,1.367617099512117e-14,-24.158841588415882
8.153749528130026e-10,2.2962214908880612e-32,1.9619302750390666e-18,5.520276416917105e-27,8.153749547749328e-10,1.2016743393888049e-14,-23.99883998839988
7.63988413918073e-10,1.686395522828123e-32,1.6688579374526023e-18,3.860326820937064e-27,7.63988415586931e-10,1.0555602299312212e-14,-23.838838388383877
7.157356205391385e-10,1.2376752596659254e-32,1.4190641406230309e-18,2.69639809604913e-27,7.157356219582026e-10,9.269434018178155e-15,-23.678836788367875
6.704323222084557e-10,9.077276926716487e-33,1.2062339284959515e-18,1.881224548979169e-27,6.704323234146897e-10,8.13761955903702e-15,-23.518835188351872
6.279046645147012e-10,6.652824486967613e-33,1.024962347262763e-18,1.310973615089221e-27,6.279046655396636e-10,7.141928760901075e-15,-23.358833588335884
5.879886295927168e-10,4.87257074453063e-33,8.706250133517402e-19,9.125232798652097e-28,5.879886304633418e-10,6.266248476775069e-15,-23.19883198831988
5.505295050992115e-10,3.566250507615251e-33,7.392668405691284e-19,6.344401257536554e-28,5.505295058384783e-10,5.496341098066435e-15,-23.03883038830388
5.153813803188192e-10,2.608357682121007e-33,6.275064150698989e-19,4.40589375591435e-28,5.153813809463256e-10,4.819630102031318e-15,-22.878828788287876
4.82406668104002e-10,1.9064439909209517e-33,5.324538489161259e-19,3.056145918337233e-28,4.824066686364559e-10,4.225009659292354e-15,-22.718827188271874
4.5147565140931645e-10,1.3924594658902547e-33,4.516402392038463e-19,2.1174386693731443e-28,4.514756518609567e-10,3.7026756562779725e-15,-22.55882558825587
4.224660532350576e-10,1.0163485664137282e-33,3.829571161497446e-19,1.4653598298269598e-28,4.224660536180147e-10,3.2439757719641058e-15,-22.398823988239883
3.9526262884800114e-10,7.413177552209139e-34,3.2460448538939423e-19,1.0129182871969435e-28,3.9526262917260563e-10,2.841276502935647e-15,-22.23882238822388
3.697567791972674e-10,5.403407621665029e-34,2.7504626162618833e-19,6.993607098578155e-29,3.697567794723136e-10,2.487845258592036e-15,-22.078820788207878
3.4584618449186467e-10,3.935796779858975e-34,2.3297205666677757e-19,4.823083003304407e-29,3.4584618472483673e-10,2.1777458520520046e-15,-21.918819188191875
3.2343445695289116e-10,2.86483231664947e-34,1.9726442824830258e-19,3.322346541625518e-29,3.234344571501556e-10,1.9057458944508757e-15,-21.758817588175873
3.024308117980743e-10,2.0838543173116035e-34,1.669708199131236e-19,2.285924131260996e-29,3.024308119650451e-10,1.667234763096943e-15,-21.59881598815987
2.8274975555905113e-10,1.514736557501879e-34,1.4127952913276163e-19,1.5709970967919827e-29,2.827497557003307e-10,1.4581509593742766e-15,-21.438814388143882
2.6431079087291914e-10,1.1002932938774582e-34,1.194991331949434e-19,1.0784143065422668e-29,2.6431079099241826e-10,1.2749178021481755e-15,-21.27881278812788
2.470381369289135e-10,7.986958556869428e-35,1.0104088201573447e-19,7.39422372868856e-30,2.470381370299544e-10,1.1143865183730696e-15,-21.118811188111877
2.3086046478883492e-10,5.793699978090273e-35,8.540363573291038e-20,5.064029434136985e-30,2.3086046487423856e-10,9.737858960743967e-16,-20.958809588095875
2.157106468359881e-10,4.199834519240516e-35,7.216098415969787e-20,3.4641488408977255e-30,2.1571064690814908e-10,8.506777571886517e-16,-20.798807988079872
2.0152551964209467e-10,3.0423555109808006e-35,6.095023621482608e-20,2.366974363200172e-30,2.015255197030449e-10,7.429175900720273e-16,-20.63880638806387
1.8824565957478434e-10,2.2023652733853336e-35,5.146301140984014e-20,1.6154266846257983e-30,1.8824565962624736e-10,6.486197548839333e-16,-20.47880478804788
1.7581517050008138e-10,1.5932001748223006e-35,4.3437203332172625e-20,1.1012289984270978e-30,1.7581517054351857e-10,5.661267404624809e-16,-20.31880318803188
1.6418148296475632e-10,1.1517360115770548e-35,3.6650117648214604e-20,7.498332829548977e-31,1.6418148300140644e-10,4.93982009584394e-16,-20.158801588015876
1.5329516427248552e-10,8.320264890391624e-36,3.0912615187298686e-20,5.099745180422627e-31,1.5329516430339814e-10,4.309060214007624e-16,-19.998799987999874
1.4310973889567861e-10,6.0065205304989296e-36,2.6064114780601146e-20,3.464407154680423e-31,1.4310973892174274e-10,3.757750660457124e-16,-19.83879838798387
1.3358151869146633e-10,4.333216464547992e-36,2.19683312593162e-20,2.350747947105147e-31,1.3358151871343467e-10,3.276025875368286e-16,-19.67879678796787
1.2466944241587433e-10,3.123916445380397e-36,1.8509641831406396e-20,1.5932351976144936e-31,1.2466944243438397e-10,2.8552270767136693e-16,-19.518795187951866
1.163349240545336e-10,2.250557120862688e-36,1.5589989359787104e-20,1.0785751423941588e-31,1.1633492407012359e-10,2.4877569615986644e-16,-19.358793587935878
1.085417095116457e-10,1.6202509205479258e-36,1.3126244205687138e-20,7.293191377109398e-32,1.0854170952477194e-10,2.1669516116673577e-16,-19.198791987919876
1.0125574122114372e-10,1.1656713422653225e-36,1.1047957580299764e-20,4.9258536061274977e-32,1.0125574123219168e-10,1.88696760137499e-16,-19.038790387903873
9.444503026530386e-11,8.380531605547345e-37,9.2954490255374e-21,3.32308981676023e-32,9.444503027459931e-11,1.64268253634191e-16,-18.87878878788787
8.807953560635744e-11,6.020999941016259e-37,7.818178944875884e-21,2.239233313223002e-32,8.807953561417561e-11,1.4296074518780443e-16,-18.718787187871868
8.213105005609906e-11,4.3228213089063705e-37,6.573364221137804e-21,1.5071389770013446e-32,8.213105006267242e-11,1.2438096818830726e-16,-18.558785587855866
7.657309262698163e-11,3.1014697542572824e-37,5.5248010562185804e-21,1.0132204451397477e-32,7.657309263250644e-11,1.0818449681903952e-16,-18.398783987839877
7.138080692590893e-11,2.2236653197671883e-37,4.6418643916446456e-21,6.803795875820031e-33,7.138080693055079e-11,9.4069772225793e-17,-18.238782387823875
6.653086526879149e-11,1.593209551808759e-37,3.898657742062463e-21,4.563470997415854e-33,6.653086527269015e-11,8.1772847690768e-17,-18.078780787807872
6.200137821005383e-11,1.1407171897023505e-37,3.2732911026258568e-21,3.0572855378973098e-33,6.200137821332713e-11,7.106276773525088e-17,-17.91877918779187
5.777180919662104e-11,8.161776098744128e-38,2.7472678672999908e-21,2.045848156761204e-33,5.777180919936831e-11,6.17375059607531e-17,-17.758777587775867
5.382289407058202e-11,5.83570020806281e-38,2.3049644970430805e-21,1.3674374835806212e-33,5.3822894072886986e-11,5.362039519743517e-17,-17.598775987759865
5.0136565158665315e-11,4.1696814323520514e-38,1.9331890723139056e-21,9.129316248255786e-34,5.013656516059851e-11,4.655699128683185e-17,-17.438774387743877
4.6695879699992724e-11,2.9772436952104953e-38,1.620806911548089e-21,6.087874781467029e-34,4.669587970161353e-11,4.0412318695190205e-17,-17.278772787727874
4.348495237624126e-11,2.1243569835886482e-38,1.358423186090858e-21,4.054990662162838e-34,4.348495237759968e-11,3.5068452233878966e-17,-17.11877118771187
4.0488891720437633e-11,1.514754387911656e-38,1.1381139554557548e-21,2.6978058613022285e-34,4.048889172157575e-11,3.042239454322182e-17,-16.95876958769587
3.769374019210319e-11,1.0793406797599559e-38,9.531983215204057e-22,1.7927850310225377e-34,3.769374019305639e-11,2.6384213754723797e-17,-16.798767987679867
3.5086417717439024e-11,7.685577002111556e-39,7.980454879413816e-22,1.189987580680672e-34,3.508641771823707e-11,2.2875409954358797e-17,-16.638766387663864
3.265466850365777e-11,5.4688500615451583e-39,6.679114387659652e-22,7.889569903281322e-35,3.265466850432568e-11,1.9827482788866458e-17,-16.478764787647876
3.0387010946503546e-11,3.8888139052425316e-39,5.588007411518227e-22,5.224694677567765e-35,3.0387010947062345e-11,1.7180675843455733e-17,-16.318763187631873
2.827269045945212e-11,2.7633755543378168e-39,4.673496511738656e-22,3.455932025162042e-35,2.827269045991947e-11,1.4882876322342056e-17,-16.15876158761587
2.6301635062059487e-11,1.962294866671858e-39,3.907272759419603e-22,2.2833167124760894e-35,2.6301635062450213e-11,1.2888651126974348e-17,-15.998759987599868
2.446441357348501e-11,1.3924840525378895e-39,3.2655203426439142e-22,1.5068284353910087e-35,2.4464413573811562e-11,1.1158402689654326e-17,-15.838758387583866
2.2752196265339753e-11,9.874561032726534e-40,2.728210743561722e-22,9.932490240121217e-36,2.2752196265612574e-11,9.657629917049084e-18,-15.678756787567863
2.1156717835738955e-11,6.997565507111663e-40,2.2785066129280997e-22,6.539569728373987e-36,2.1156717835966805e-11,8.35628135954266e-18,-15.518755187551875
1.9670242573778532e-11,4.955389007126809e-40,1.902258481818989e-22,4.300677637419006e-36,1.9670242573968758e-11,7.228189275698644e-18,-15.358753587535872
1.8285531590644424e-11,3.5067930676955323e-40,1.5875800117751315e-22,2.8250184897451818e-36,1.828553159080318e-11,6.250574630415998e-18,-15.19875198751987
1.6995812000180056e-11,2.4799568913620336e-40,1.3244896616604984e-22,1.8535418092101204e-36,1.6995812000312505e-11,5.403614272067148e-18,-15.038750387503868
1.579474793805084e-11,1.752587580860764e-40,1.1046084990650912e-22,1.2147311447660742e-36,1.57947479381613e-11,4.670062596956238e-18,-14.878748787487865
1.467641331461153e-11,1.2377043979168868e-40,9.209054547768863e-23,7.951602007101853e-37,1.4676413314703622e-11,4.034920945616252e-18,-14.718747187471863
1.3635266202271706e-11,8.734855891251369e-41,7.674826522117345e-23,5.199071508088223e-37,1.3635266202348455e-11,3.485148799636053e-18,-14.558745587455874
1.266612476353443e-11,6.160219122374064e-41,6.393945751425595e-23,3.395421035659387e-37,1.266612476359837e-11,3.0094115730393737e-18,-14.398743987439872
1.1764144631006931e-11,4.3414837789764626e-41,5.324957968085692e-23,2.2149206242857105e-37,1.1764144631060181e-11,2.5978604303599254e-18,-14.23874238742387
1.0924797655526638e-11,3.0576080342587865e-41,4.433128072510193e-23,1.4431762970606215e-37,1.092479765557097e-11,2.2419401247687943e-18,-14.078740787407867
