1-Feng 1996,4-Sakakibara 1992,5-Sakakibara 1993,6-Schneider 1994,sum,gauss,x
2.3727946366428773e-05,6.723981457312786e-14,4.193392845843852e-08,3.9233023015729156e-46,2.3769880362127025e-05,2.5976444404137466e-05,-140.0
2.4720715800811992e-05,8.126580339936886e-14,4.60606240757119e-08,6.35647276231547e-46,2.476677650615351e-05,2.718421901700645e-05,-139.839998399984
2.5751254127360297e-05,9.815010425083443e-14,5.057558829820016e-08,1.0286728930668395e-45,2.5801829813808602e-05,2.8443973947089673e-05,-139.679996799968
2.6820827982263563e-05,1.1846097512185858e-13,5.551354043158095e-08,1.6627811371092854e-45,2.687634164115612e-05,2.9757739694899255e-05,-139.519995199952
2.7930739217919368e-05,1.4287671198535897e-13,6.09121270942539e-08,2.6846617216572945e-45,2.7991651487890335e-05,3.1127616371643716e-05,-139.359993599936
2.9082325587968486e-05,1.7220636407944928e-13,6.6812152353208e-08,4.329529868617411e-45,2.914913791252806e-05,3.255577565314275e-05,-139.19999199992
3.027696143392883e-05,2.074142322228671e-13,7.325782444919275e-08,6.974106862107953e-45,3.0350219465792255e-05,3.404446277012308e-05,-139.03999039990399
3.151605837287386e-05,2.4964881858738967e-13,8.02970201773633e-08,1.1221040845624564e-44,3.159635564270004e-05,3.559599853477052e-05,-138.879988799888
3.2801065985587714e-05,3.0027701026506133e-13,8.798156804743939e-08,1.803326550482381e-44,3.288904785391216e-05,3.721278140338415e-05,-138.719987199872
3.413347250459571e-05,3.609244115256466e-13,9.636755140745666e-08,2.894758238158264e-44,3.422984041692758e-05,3.889728957491934e-05,-138.559985599856
3.5514805501450804e-05,4.3352289378436506e-13,1.0551563277761652e-07,4.64137766765245e-44,3.562032156775132e-05,4.0652083125167594e-05,-138.39998399984
3.694663257263231e-05,5.203666113432482e-13,1.1549140070545374e-07,7.433240869152346e-44,3.706212449370438e-05,4.2479806176274735e-05,-138.239982399824
3.843056202338073e-05,6.241779387766867e-13,1.2636574052050595e-07,1.1890666317345426e-43,3.8556928388079177e-05,4.438318910123417e-05,-138.079980799808
3.99682435487798e-05,7.481850268135695e-13,1.3821523043610742e-07,1.899900537970147e-43,4.010645952740093e-05,4.636505076296011e-05,-137.919979199792
4.1561368911359086e-05,8.962129527709751e-13,1.5112256451748846e-07,3.0321607914035946e-43,4.171249237208953e-05,4.8428300787469386e-05,-137.759977599776
4.321167261447292e-05,1.0727907647958652e-12,1.651770041093506e-07,4.833595210181973e-43,4.337685069137303e-05,5.057594187065892e-05,-137.59997599976
4.49209325706865e-05,1.2832770929715028e-12,1.804748593923186e-07,7.696353651687515e-43,4.510140871335592e-05,5.28110721181062e-05,-137.439974399744
4.669097076436581e-05,1.53400743227884e-12,1.9712000281598807e-07,1.2240423432271289e-42,4.6888092301189236e-05,5.51368874172464e-05,-137.279972799728
4.852365390765526e-05,1.832466701069127e-12,2.152244162370252e-07,1.9444848136463487e-42,4.873888015635899e-05,5.7556683841239605e-05,-137.11997119971198
5.042089408898698e-05,2.1874912538884205e-12,2.3490877367330085e-07,3.0853849572605923e-42,5.065580505015154e-05,6.007386008375285e-05,-136.959969599696
5.238464941325509e-05,2.6095051903513767e-12,2.5630306166991383e-07,4.890022393690892e-42,5.2640955084430194e-05,6.269191992384005e-05,-136.79996799968
5.441692463274754e-05,3.110796564953123e-12,2.795472393594585e-07,7.741213158897219e-42,5.469647498290357e-05,6.541447472001306e-05,-136.639966399664
5.6519771767912746e-05,3.705839980635076e-12,3.0479194038742706e-07,1.224063343316473e-41,5.682456741414016e-05,6.824524593253994e-05,-136.479964799648
5.869529071701359e-05,4.411673057909435e-12,3.3219921896382295e-07,1.9332830653135933e-41,5.902749434765048e-05,7.118806767293689e-05,-136.31996319963199
6.094562985368222e-05,5.24833542989944e-12,3.61943342393606e-07,3.049886580662743e-41,6.130757844441125e-05,7.424688927952996e-05,-136.159961599616
6.327298661138633e-05,6.239380242735475e-12,3.942116325319019e-07,4.805832382874863e-41,6.366720448329847e-05,7.742577791791202e-05,-135.9999599996
6.5679608053769e-05,7.412469664037755e-12,4.292053587039411e-07,7.563977667117257e-41,6.61088208249426e-05,8.072892120501725e-05,-135.839958399584
6.816779142981501e-05,8.800067646501496e-12,4.671406847251409e-07,1.1891278328866715e-40,6.863494091460779e-05,8.416062985547411e-05,-135.679956799568
7.073988471277274e-05,1.0440245189082443e-11,5.082496727528224e-07,1.8672546039062604e-40,7.124814482577075e-05,8.77253403488144e-05,-135.519955199552
7.339828712171923e-05,1.2377615618996867e-11,5.527813467973604e-07,2.928702254159115e-40,7.395108084613221e-05,9.142761761601816e-05,-135.359953599536
7.614544962465971e-05,1.4664420022078307e-11,6.010028188178066e-07,4.588213221947134e-40,7.674646710789754e-05,9.527215774381744e-05,-135.19995199951998
7.898387542200038e-05,1.736178592003724e-11,6.53200480423293e-07,7.179738897812582e-40,7.963709326420958e-05,9.9263790695061e-05,-135.039950399504
8.191612040923756e-05,2.0541185679362335e-11,7.096812632984437e-07,1.1222003438736954e-39,8.262582221372168e-05,0.00010340748304339098,-134.879948799488
8.494479361766198e-05,2.4286124992268837e-11,7.707739715662208e-07,1.7519787417251404e-39,8.571559187535319e-05,0.00010770834072036054,-134.719947199472
8.807255763186758e-05,2.8694096156231427e-11,8.368306893964153e-07,2.732020507470453e-39,8.890941701536015e-05,0.00011217161177304843,-134.559945599456
9.130212898283681e-05,3.387883586342221e-11,9.082282672611859e-07,4.255354697953806e-39,9.221039112893386e-05,0.00011680268913014161,-134.39994399943998
9.463627851533535e-05,3.9972932871045255e-11,9.853698903296097e-07,6.620400528830439e-39,9.562168837859783e-05,0.00012160711337432751,-134.239942399424
9.807783172835607e-05,4.7130837343417565e-11,1.0686867325826322e-06,1.0287964372746768e-38,9.914656559177605e-05,0.0001265905755187966,-134.079940799408
0.00010162966908730868,5.553233093156587e-11,1.15863970031473e-06,1.5968764883250033e-38,0.00010278836431995434,0.00013175891978550386,-133.919939199392
0.0001052947263066482,6.538652489214031e-11,1.2557212687714193e-06,2.4757676827027615e-38,0.00010655051296194452,0.00013711814638277681,-133.759937599376
0.00010907599460162042,7.693646286232564e-11,1.36045741574996e-06,3.833938487219167e-38,0.00011043652895383323,0.00014267441427975544,-133.59993599935999
0.00011297652090776794,9.046441543207822e-11,1.4734096560637206e-06,5.930305679060228e-38,0.00011445002102824709,0.00014843404397501967,-133.439934399344
0.0001169994080668549,1.0629796553502543e-10,1.5951771808398438e-06,9.162325299135526e-38,0.00011859469154566028,0.00015440352025671125,-133.27993279932798
0.0001211478149778197,1.2481699707553793e-10,1.7263991056812946e-06,1.4139401346540899e-37,0.00012287433890049805,0.00016058949495129294,-133.119931199312
0.00012542495671138984,1.4646171430074167e-10,1.8677568317812906e-06,2.179480688819466e-37,0.00012729286000488543,0.00016699878965805118,-132.959929599296
0.00012983410458694658,1.7174183640935645e-10,2.0199765241254427e-06,3.355611828449527e-37,0.00013185425285290844,0.0001736383984662844,-132.79992799928
0.00013437858621023844,2.0124713098265468e-10,2.1838317109579343e-06,5.160444313491153e-37,0.00013656261916832738,0.00018051549065205578,-132.639926399264
0.00013906178547053486,2.356594712664715e-10,2.3601460087195482e-06,7.92682304495116e-37,0.00014142216713872567,0.0001876374133512846,-132.47992479924798
0.0001438871424957792,2.7576662639171843e-10,2.5497959766858933e-06,1.2162081761716583e-36,0.00014643721423909147,0.00019501169420580632,-132.319923199232
0.00014885815356433473,3.224780205857027e-10,2.753714105546804e-06,1.8638603178192284e-36,0.00015161219014790211,0.00020264604397898843,-132.159921599216
0.00015397837097186603,3.768427276166464e-10,2.972891944165448e-06,2.8530901450637176e-36,0.0001569516397587591,0.00021054835913732726,-131.9999199992
0.0001592514028519322,4.400700004804318e-10,3.2083833687439476e-06,4.362287786293975e-36,0.0001624602262906766,0.00021872672439437842,-131.839918399184
0.00016468091294885595,5.135526740652446e-10,3.461307998595538e-06,6.662079651631104e-36,0.00016814273450012555,0.00022718941521327995,-131.67991679916798
0.00017027062034141128,5.988938206356381e-10,3.7328547626812397e-06,1.0162534113314899e-35,0.00017400407399791314,0.0002359449002639736,-131.519915199152
0.0001760242991159209,6.97937084922448e-10,4.024285621014753e-06,1.548427586801424e-35,0.00018004928267402058,0.0002450018438311976,-131.35991359913598
0.00018194577798729596,8.128011778858141e-10,4.336939444963791e-06,2.3565489853914264e-35,0.00018628353023343765,0.00025436910816914617,-131.19991199912
0.00018803893986662535,9.459190663822677e-10,4.6722360603882535e-06,3.5822734277101913e-35,0.00019271212184607999,0.00026405575579866976,-131.039910399104
0.0001943077213738675,1.1000824606005102e-09,5.03168045744432e-06,5.439233204893598e-35,0.0001993405019137724,0.0002740710517427128,-130.87990879908799
0.0002007561122942383,1.2784922728780988e-09,5.416867170755997e-06,8.24922815300066e-35,0.00020617425795726717,0.0002844244656956322,-130.719907199072
0.0002073881549769162,1.4848158010653474e-09,5.8294848335065725e-06,1.2496420745682714e-34,0.00021321912462622384,0.00029512567412195935,-130.55990559905598
0.0002142079436746378,1.7232514777119245e-09,6.271320908828203e-06,1.8908394342257978e-34,0.00022048098783494373,0.0003061845622799947,-130.39990399904
0.0002212196238228575,1.998602123830626e-09,6.744266601677332e-06,2.8577244536217153e-34,0.00022796588902665866,0.0003176112261656404,-130.239902399024
0.0002284273912570815,2.316357753706233e-09,7.250321954160263e-06,4.314025810600007e-34,0.00023568002956899547,0.00032941597437167406,-130.079900799008
0.00023583549136705395,2.6827890961104794e-09,7.791601127032058e-06,6.504917834223358e-34,0.00024362977528318212,0.00034160932985765247,-129.919899198992
0.00024344821818649988,3.1050531283587064e-09,8.370337869820883e-06,9.797100865741913e-34,0.00025182166110944914,0.0003542020316255412,-129.75989759897598
0.00025126991341710127,3.591312063975621e-09,8.988891181729025e-06,1.4738389561504798e-33,0.0002602623959108943,0.00036720503629601004,-129.59989599896
0.00025930496538548403,4.150867393486883e-09,9.649751165139293e-06,2.2146197656875097e-33,0.00026895886741801683,0.00038062951958037623,-129.43989439894398
0.0002675578079319472,4.7943107522333624e-09,1.0355545073193388e-05,3.32387742568795e-33,0.00027791814731589277,0.0003944868776429471,-129.279892798928
0.00027603291922976533,5.53369358044045e-09,1.1109043552527295e-05,4.982961323181347e-33,0.0002871474964758731,0.0004087887283486032,-129.119891198912
0.00028473482053387243,6.382717750432845e-09,1.1913167081823518e-05,7.461509918335271e-33,0.0002966543703334464,0.00042354691239023716,-128.95988959889598
0.00029366807485780205,7.3569495653511964e-09,1.2770992606391922e-05,1.1159959358019284e-32,0.00030644642441375933,0.00043877349429069675,-128.79988799888
0.00030283728557780855,8.474059784543552e-09,1.3685760368505378e-05,1.6672287603654577e-32,0.0003165315200060985,0.0004544807632738016,-128.63988639886398
0.0003122470949630836,9.75409260459715e-09,1.4660880932691364e-05,2.4878515468956067e-32,0.00032691772998837956,0.00047068123399886757,-128.479884798848
0.0003219021826311016,1.121976682348637e-08,1.5699942404632857e-05,3.7080912975117114e-32,0.00033761334480255793,0.0004873876471532575,-128.31988319883197
0.00033180726392708737,1.2896812740296115e-08,1.680671784173115e-05,5.520431978923339e-32,0.00034862687858155884,0.0005046129698972529,-128.15988159881599
0.00034196708822674594,1.4814348696361166e-08,1.7985172852764726e-05,8.209040449268155e-32,0.000359967075428207,0.0005223703961556746,-127.99987999879998
0.00035238643716133897,1.700530154733816e-08,1.923947338340235e-05,1.2192939426597115e-31,0.00037164291584628866,0.0005406733467504699,-127.83987839878398
0.0003630701227643429,1.950687577177039e-08,2.057399368363489e-05,1.8089273494283606e-31,0.00038366362332374957,0.000559535469368592,-127.67987679876799
0.00037402298553892624,2.236107637216449e-08,2.199332445244231e-05,2.680590793778522e-31,0.00039603867106774074,0.0005789706383593717,-127.51987519875199
0.0003852498924455395,2.5615291211630598e-08,2.3502281154234842e-05,3.967679709325454e-31,0.00040877778889098594,0.0005989929543555835,-127.35987359873599
0.0003967557348090179,2.93229389549571e-08,2.5105912500790357e-05,5.865963810811454e-31,0.0004218909702487632,0.0006196167437124254,-127.19987199871998
0.00040854542614460914,3.354418934978835e-08,2.6809509091551718e-05,8.662412089724302e-31,0.00043538847942551067,0.0006408565577585623,-127.03987039870398
0.0004206238999024441,3.834676319365348e-08,2.861861220425326e-05,1.2777179297648093e-30,0.000449280858869891,0.0006627271718534131,-126.879868798688
0.00043299610713002295,4.3806819988207063e-08,3.053902272691447e-05,1.8824689697382803e-30,0.00046357893667692566,0.0006852435842448778,-126.71986719867199
0.00044566701405234594,5.000994198543967e-08,3.257681022126484e-05,2.7702397147277134e-30,0.0004782938342155962,0.0007084210147216294,-126.55986559865599
0.0004586415995694367,5.7052224084105493e-08,3.473832210666243e-05,4.0719605720901416e-30,0.0004934369739001832,0.0007322749030542437,-126.39986399863999
0.00047192485267103895,6.504147984029987e-08,3.703019295251977e-05,5.9784205939300996e-30,0.000509020087103399,0.0007568209072193272,-126.23986239862398
0.00048552176976836834,7.409857471623753e-08,3.9459353866175216e-05,8.767303772840721e-30,0.0005250552222092597,0.0007820749014009201,-126.07986079860798
0.0004994373519428843,8.435889860778452e-08,4.203304196203667e-05,1.2842285825488148e-29,0.0005415547528035287,0.0008080529737634683,-125.91985919859198
0.0005136766021121254,9.597399066614451e-08,4.4758809896675956e-05,1.8789503176499884e-29,0.0005585313859994674,0.000834771423990684,-125.75985759857599
0.0005282445221127498,1.091133304640401e-07,4.76445354533831e-05,2.7459014733764217e-29,0.000575998170896597,0.0008622467605847115,-125.59985599855999
0.0005431461097009871,1.2396631065325293e-07,5.0698431158474586e-05,4.0082176069419563e-29,0.0005939685071701149,0.0008904956979200166,-125.43985439854399
0.0005583863554708416,1.4074440741996823e-07,5.392905391043184e-05,5.844055353295401e-29,0.0006124561537886934,0.0009195351530465748,-125.27985279852798
0.0005739702396904395,1.596835662678322e-07,5.7345314601676694e-05,8.51087159347987e-29,0.0006314752378583841,0.0009493822422369226,-125.11985119851198
0.0005899027290570351,1.8104682194690518e-07,6.095648771151946e-05,1.2380279332963378e-28,0.0006510402635905015,0.000980054277271811,-124.95984959849598
0.0006061887733712769,2.051271726999826e-07,6.477222084751478e-05,1.7988027264820482e-28,0.0006711661213914916,0.0010115687614592227,-124.79984799847999
0.0006228333021314539,2.3225073041602733e-07,6.880254421114618e-05,2.610557832470917e-28,0.0006918680970730161,0.0010439433853816973,-124.63984639846399
0.0006398412210485047,2.627801697631012e-07,7.305787996242948e-05,3.7842497272510117e-28,0.0007131618811806973,0.0010771960223669582,-124.47984479844798
0.0006572174084827357,2.971185009191544e-07,7.75490514566929e-05,5.479273083426725e-28,0.0007350635784403477,0.0011113447236770191,-124.31984319843198
0.0006749667118032456,3.3571319212647845e-07,8.228729232544372e-05,7.9243343544889125e-28,0.0007575897173208158,0.0011464077134110682,-124.15984159841598
0.000693093943671196,3.7906066996220063e-07,8.7284255371886e-05,1.144720144068281e-27,0.0007807572597130442,0.0011824033831175469,-123.99983999839998
0.0007116038782481595,4.2771122693974156e-07,9.255202125031155e-05,1.651705241965086e-27,0.0008045836107254108,0.001219350286111045,-123.83983839838399
0.0007305012473309099,4.822743678306909e-07,9.810310689725375e-05,2.3804685983358374e-27,0.0008290866285959943,0.00125726713148979,-123.67983679836799
0.0007497907364140902,5.434246279179356e-07,0.00010395047368095577,3.4268023397785125e-27,0.0008542846347229638,0.0012961727778496401,-123.51983519835198
0.0007694769806823644,6.119078982538595e-07,0.0001101075352344174,4.927337842488905e-27,0.0008801964238150356,0.0013360862266907651,-123.35983359833598
0.0007895645609337282,6.885482948941282e-07,0.00011658816493597745,7.076724922745186e-27,0.0009068412741645998,0.0013770266155133403,-123.19983199831998
0.0008100579994357872,7.742556110009441e-07,0.0001234067030001451,1.0151938463370357e-26,0.0009342389580469332,0.0014190132105987797,-123.03983039830399
0.0008309617557169403,8.700333926496065e-07,0.00013057796314016248,1.454662779337875e-26,0.0009624097522497523,0.0014620653994733312,-122.87982879828797
0.0008522802222944744,9.769876811184277e-07,0.00013811723876258513,2.08195992041958e-26,0.0009913744487381779,0.0015062026830509456,-122.71982719827199
0.0008740177203418076,1.0963364663831652e-06,0.00014604030865305738,2.9763163549502293e-26,0.0010211543654612483,0.001551444667452817,-122.55982559825598
0.0008961784952970608,1.2294198984579128e-06,0.00015436344211132086,4.2499371248797846e-26,0.0010517713573068397,0.001597811055500913,-122.39982399823998
0.0009187667124154434,1.3777113051127987e-06,0.00016310340349251674,6.061534860778369e-26,0.0010832478272130729,0.0016453216378834049,-122.23982239822398
0.0009417864522679312,1.5428290663349285e-06,0.00017227745611083528,8.635339119088146e-26,0.0011156067374451014,0.0016939962839899673,-122.07982079820798
0.0009652417061888801,1.7265493976674506e-06,0.0001819033654607002,1.2287764398522248e-25,0.0011488716210472476,0.0017438549324152687,-121.91981919819199
0.0009891363716753557,1.930820096240826e-06,0.00019199940170984536,1.7464776895382432e-25,0.0011830665934814417,0.0017949175811293459,-121.75981759817599
0.001013474247741012,2.157775304878545e-06,0.0002025843414179142,2.4794188376604183e-25,0.0012182163644638047,0.0018472042773136407,-121.59981599815998
0.0010382590302275777,2.409751351095023e-06,0.00021367746843358956,3.5158751029845757e-25,0.0012543462500122621,0.0019007351068621309,-121.43981439814398
0.0010634943070770197,2.6893037190774686e-06,0.00022529857392271425,4.9798202786940325e-25,0.0012914821847188115,0.001955530183546971,-121.27981279812798
0.001089183553567632,2.999225213832814e-06,0.00023746795547944157,7.045155575493472e-25,0.0013296507342609063,0.002011609637848637,-121.11981119811198
0.0011153301275174082,3.3425653775526768e-06,0.00025020641527214224,9.955525623311955e-25,0.001368879108167103,0.0020689936054507823,-120.95980959809597
0.0011419372644581507,3.7226512188752796e-06,0.00026353525717561475,1.4051881835574034e-24,0.0014091951728526409,0.0021277022154004535,-120.79980799807998
0.0011690080727839167,4.143109316069913e-06,0.0002774762828410782,1.98107752835215e-24,0.001450627464941065,0.002187755577934634,-120.63980639806398
0.0011965455288774542,4.607889355199794e-06,0.00029205178665550407,2.78974907618914e-24,0.0014932052048881581,0.0022491737719744207,-120.47980479804798
0.0012245524722184896,5.12128916400309e-06,0.0003072845495420857,3.923968398783183e-24,0.0015369583109245783,0.002311976832288654,-120.31980319803198
0.0012530316004777306,5.687981301522669e-06,0.00032319783155400166,5.512930887008395e-24,0.0015819174133332552,0.002376184736329062,-120.15980159801597
0.0012819854646006312,6.313041262381712e-06,0.0003398153632141642,7.736353088483674e-24,0.001628113869077177,0.002441817390739498,-119.99979999799999
0.0013114164638850455,7.001977352999565e-06,0.000357161335554364,1.0843930005721886e-23,0.001675579776792409,0.0025088946175421986,-119.83979839798398
0.0013413268410569722,7.760762294927012e-06,0.0003752603888080464,1.5182168830189116e-23,0.0017243479921599456,0.0025774361400043894,-119.67979679796798
0.0013717186773487592,8.5958666078161e-06,0.00039413759971206866,2.123135028410235e-23,0.001774452143668644,0.002647461568189102,-119.51979519795198
0.0014025938875841632,9.51429382127393e-06,0.000413818467373951,2.9656377590453374e-23,0.0018259266487793881,0.0027189903841943596,-119.35979359793598
0.001433954215274791,1.052361756094643e-05,0.0004343288976625961,4.1376645416683666e-23,0.0018788067304983335,0.0027920419270854105,-119.19979199791997
0.0014658012277325458,1.163202054958861e-05,0.0004556951860820513,5.766192550951145e-23,0.0019331284343641858,0.00286663537752514,-119.03979039790397
0.0014981363112027545,1.2848335558558627e-05,0.0004779439990896845,8.02637953421778e-23,0.0019889286458509977,0.002942789742108179,-118.87978879788798
0.0015309606660227919,1.4182088339082037e-05,0.0005011023538221986,1.1159556390094803e-22,0.0020462451081840723,0.0030205238374047877,-118.71978719787198
0.0015642753018110095,1.5643542555723563e-05,0.0005251975961950455,1.5497828772498314e-22,0.0021051164405617787,0.003099856273720904,-118.55978559785598
0.001598081032690977,1.7243746736743445e-05,0.0005502573773433425,2.1497674039273307e-22,0.0021655821567710632,0.003180805438581408,-118.39978399783998
0.0016323784725559918,1.8994583247351215e-05,0.0005763096283749149,2.978576624436844e-22,0.0022276826841782582,0.0032633894799439793,-118.23978239782397
0.0016671680303789575,2.0908819282279663e-05,0.0006033825334090115,4.1221402908020755e-22,0.0022914593830702487,0.0033476262891514144,-118.07978079780798
0.0017024499055727854,2.300015986354027e-05,0.0006315045008772907,5.698144359410839e-22,0.0023569545663136163,0.0034335334836308696,-117.91977919779198
0.0017382240834064719,2.52833028176596e-05,0.0006607041330668952,7.86757361353627e-22,0.0024242115192910267,0.0035211283893487448,-117.75977759777598
0.0017744903304821728,2.777399569411801e-05,0.0006910101938890299,1.0850378060726774e-21,0.002493274520065321,0.003610428023030732,-117.59977599775998
0.0018112481902785233,3.0489094573075946e-05,0.0007224515748600416,1.4946710201224807e-21,0.0025641888597116407,0.0037014490741566868,-117.43977439774397
0.0018484969787655686,3.344662469578068e-05,0.0007550572592859963,2.0565678664604117e-21,0.0026370008627473454,0.003794207886740768,-117.27977279772797
0.001886235780096689,3.6665842835278555e-05,0.0007888562846458174,2.8264230446595516e-21,0.002711757907577785,0.003888720440907545,-117.11977119771197
0.0019244634423829323,4.016730130820833e-05,0.0008238777031723992,3.879966474782832e-21,0.0027885084468635395,0.003985002334275399,-116.95976959769598
0.001963178573555208,4.3972913510533316e-05,0.0008601505406356158,5.3200469960544216e-21,0.0028673020277013572,0.004083068763159036,-116.79976799767998
0.0020023795373197623,4.810602084107498e-05,0.000897703753335836,7.28617591565951e-21,0.0029481893114966734,0.004182934503603215,-116.63976639766398
0.0020420644492124733,5.259146085669504e-05,0.0009365661833215139,9.967368721220207e-21,0.0030312220933906824,0.0042846138922606036,-116.47976479764797
0.002082231172757411,5.745563648191667e-05,0.0009767665118494233,1.3619403416829732e-20,0.003116453321088751,0.004388120807126838,-116.31976319763197
0.0021228773157351524,6.272658607376308e-05,0.0010183332111114132,1.8587985802519944e-20,0.003203937112920329,0.0044934686481464935,-116.15976159761598
0.0021640002265663665,6.84340541196555e-05,0.0010612944942569459,2.5339804973529445e-20,0.0032937287749429675,0.004600670317704202,-115.99975999759997
0.0022055969908160574,7.460956232238914e-05,0.0011056782637461618,3.450411495285279e-20,0.003385884816884608,0.004709738201015261,-115.83975839758398
0.0022476644278240747,8.128648080165029e-05,0.001151512058074133,4.6928341286265636e-20,0.0034804629666998575,0.004820684146431268,-115.67975679756798
0.0022901990874671326,8.850009911619352e-05,0.0011988229969124374,6.375235088540653e-20,0.0035775221834957634,0.004933519445675717,-115.51975519755197
0.002333197247057889,9.628769678494995e-05,0.0012476377247204718,8.650752605934071e-20,0.0036771226685633107,0.005048254814026009,-115.35975359753597
0.002376654908386366,0.0001046886129589138,0.0012979823528847041,1.1724876270407325e-19,0.003779325874229984,0.0051649003704579595,-115.19975199751997
0.002420567794909044,0.00011374431486892049,0.0013498824004502996,1.5873011563021774e-19,0.0038841945102282647,0.005283465617769729,-115.03975039750398
0.002464931349090928,0.00012349846464745245,0.0014033627335156957,2.1463823325099441e-19,0.003991792547254076,0.005403959422702463,-114.87974879748798
0.0025097407299057017,0.00013399698409554282,0.001458447503366891,2.89902209376566e-19,0.004102185217368135,0.005526389996075034,-114.71974719747197
0.002554990810499214,0.00014528811693893324,0.0015151600834345637,3.9110435644869153e-19,0.00421543901087271,0.005650764872951222,-114.55974559745597
0.0026006761760212806,0.00015742248809093879,0.001573523005163308,5.270240934689336e-19,0.004331621669275528,0.0057770908928574775,-114.39974399743997
0.002646791121630815,0.00017045315941329814,0.0016335578928885716,7.093571887880974e-19,0.004450802173932685,0.005905374180070153,-114.23974239742398
0.0026933296506791928,0.00018443568144078324,0.0016952853978231433,9.536657086467342e-19,0.00457305072994312,0.006035620123991333,-114.07974079740796
0.0027402854730765604,0.000199428140510709,0.0017587251312610767,1.2806311085906832e-18,0.004698438744848347,0.006167833359632512,-113.91973919739198
0.0027876520038459494,0.0002154912007150953,0.0018238955971133554,1.717705142651329e-18,0.004827038801674402,0.006302017748226303,-113.75973759737597
0.0028354223618695736,0.00023268814007105682,0.0018908141238951405,2.3012821693263272e-18,0.004958924625835773,0.006438176357985755,-113.59973599735997
0.002883589368831923,0.0002510848802846754,0.001959496796290837,3.079553952521439e-18,0.005094171045407439,0.006576311445032026,-113.43973439734397
0.0029321455483639286,0.0002707500094650094,0.0020299583864286006,4.116256692730904e-18,0.005232853944257543,0.006716424434510883,-113.27973279732797
0.002981083125392399,0.0002917547971285957,0.0021022122850016685,5.495582989554872e-18,0.0053750502075226685,0.006858515901918933,-113.11973119731198
0.003030394025698826,0.0003141732008209221,0.0021762704323792883,7.328612843861213e-18,0.005520837658899044,0.00700258555466074,-112.95972959729598
0.0030800698756914173,0.0003380818636701784,0.0022521432498550644,9.76172291717379e-18,0.00567029498921667,0.007148632213858062,-112.79972799727997
0.0031301020023941804,0.0003635601021805673,0.0023298395711857335,1.2987568796831379e-17,0.005823501675760494,0.007296653796432868,-112.63972639726397
0.003180481433656621,0.00039068988356761214,0.0024093665745778133,1.7259409539137596e-17,0.005980537891802064,0.007446647297485735,-112.47972479724797
0.0032311988985874803,0.00041955579193677566,0.0024907297152841246,2.2909768196262105e-17,0.006141484405808403,0.007598608772991455,-112.31972319723197
0.0032822448282158042,0.00045024498260940734,0.0025739326589762053,3.0374710261660796e-17,0.006306422469801448,0.0077525333228338775,-112.15972159721596
0.003333609356382362,0.0004828471239069463,0.0026589772160623983,4.0225391629522473e-17,0.006475433696351746,0.00790841507420197,-111.99971999719997
0.0033852823208643766,0.0005174543257156499,0.0027458632771248273,5.3209001124106176e-17,0.006648599923704907,0.00806624716536937,-111.83971839718397
0.0034372532647361444,0.0005541610541700793,0.002834588749651348,7.030182824340285e-17,0.006826003068557642,0.008226021729879383,-111.67971679716797
0.003489511437968164,0.0005930640318146586,0.002925149496241378,9.277796030457842e-17,0.0070077249660242934,0.008387729881157924,-111.51971519715197
0.0035420457992669523,0.0006342621226286288,0.0030175392744665017,1.2229809991914546e-16,0.007193847196362205,0.008551361697576466,-111.35971359713596
0.0035948450181576626,0.0006778562013312743,0.003111749678568541,1.6102425071693407e-16,0.007384450898057639,0.008716906207987145,-111.19971199711998
0.0036478974773113616,0.0007239490064213483,0.0032077700831791276,2.117676183210419e-16,0.007579616566912049,0.008884351377752396,-111.03971039710397
0.0037011912751185334,0.0007726449764472915,0.0033055875892453552,2.7817910508374595e-16,0.007779423840811458,0.009053684095290794,-110.87970879708797
0.0037547142285102885,0.0008240500690535153,0.0034051869723467068,3.6499435444356857e-16,0.007983951269910874,0.009224890159161532,-110.71970719707197
0.0038084538760283695,0.0008782715624024118,0.003506550633587888,4.783485661509712e-16,0.008193276072019149,0.009397954265708944,-110.55970559705597
0.003862397481144908,0.0009354178386322688,0.00360965855325156,6.261804350481798e-16,0.008407473873029363,0.009572859997289013,-110.39970399703996
0.003916532035832593,0.0009955981490776902,0.0037144882473936374,8.18749786104407e-16,0.00862661843230474,0.00974958981109914,-110.23970239702396
0.003970844264385691,0.001058922361051578,0.003821014727561843,1.0693000647648017e-15,0.00885078135300018,0.009928125028632565,-110.07970079700797
0.0040253206274921,0.001125500686066068,0.003929210463815856,1.3949051405689485e-15,0.00908003177737542,0.010108445825778379,-109.91969919699197
0.004079947326556308,0.001195443389453815,0.004039045351224106,1.8175503242885726e-15,0.009314436067236045,0.010290531223587739,-109.75969759697597
0.004134710308272975,0.0012688604814409844,0.004150486680008959,2.365510619945994e-15,0.009554057469725284,0.010474359079726915,-109.59969599695997
0.0041895952694505165,0.001345861389818248,0.004263499109507488,3.0751056973701716e-15,0.009798955768779328,0.010659906080637016,-109.43969439694396
0.0042445876620837856,0.0014265546144565018,0.0043780446461103295,3.9929317015653e-15,0.01004918692265461,0.010847147734420217,-109.27969279692797
0.004299672698674774,0.0015110473640192054,0.004494082625335731,5.178695830426745e-15,0.01030480268803489,0.0110360583644718,-109.11969119691197
0.004354835357799831,0.0015994451753326823,0.004611569698189633,6.708811870122155e-15,0.010565850231328855,0.011226611103876674,-108.95968959689597
0.004410060389921843,0.0016918515159896137,0.004730459821956364,8.680955129225262e-15,0.010832371727876502,0.011418777890589083,-108.79968799687997
0.0044653323234452955,0.0017883673708779426,0.00485070425555691,1.1219825369081554e-14,0.01110440394989137,0.011612529463413204,-108.63968639686397
0.00452063547101207,0.0018890908134477611,0.00497225155960419,1.4484428738303456e-14,0.011381977844078506,0.01180783535880208,-108.47968479684796
0.004575953936035413,0.0019941165626513827,0.0050950476012762555,1.8677267268219046e-14,0.011665118099981728,0.012004663908491784,-108.31968319683196
0.0046312716194693146,0.002103535526616266,0.005219035564119417,2.405592070953655e-14,0.011953842710229054,0.012202982237987011,-108.15968159681597
0.004686572226810263,0.0022174343342361296,0.00534415596288389,3.094762471641838e-14,0.01224816252396123,0.012402756265913912,-107.99967999679997
0.004741839275327943,0.002335894855991333,0.005470346663484273,3.976759690170348e-14,0.012548080794843316,0.012603950704254907,-107.83967839678397
0.004797056101521367,0.00245899371543552,0.005597542908167078,5.104204454988423e-14,0.012853592725175007,0.012806529059480194,-107.67967679676796
0.004852205868796488,0.0025868017929095385,0.005725677345956059,6.54370126448703e-14,0.013164685007727522,0.013010453634589386,-107.51967519675196
0.004907271575361119,0.0027193837231661,0.005854680068434873,8.379450791091897e-14,0.013481335367045887,0.013215685532076261,-107.35967359673597
0.004962236062332791,0.0028567973887080075,0.005984478650914666,1.0717767539133595e-13,0.013803512102062642,0.013422184657829043,-107.19967199671996
0.005017082022054682,0.0029990934107578674,0.006114998199021481,1.3692722278252297e-13,0.014131173631970957,0.013629909725977085,-107.03967039670397
0.0050717920066148834,0.0031463146398886155,0.006246161400726501,1.7473180134806593e-13,0.014464268047404732,0.01383881826469552,-106.87966879668797
0.005126348436563494,0.0032984956484479605,0.006377888583827827,2.2271568136191578e-13,0.014802732669061998,0.014048866622976608,-106.71966719667196
0.00518073360982222,0.003455662227009095,0.006510097778880333,2.8354782953379465e-13,0.015146493615995196,0.014260009978377607,-106.55966559665598
0.005234929710780676,0.0036178308871698977,0.006642704787555706,3.605774357045288e-13,0.015495465385866857,0.014472202345752853,-106.39966399663996
0.005288918819573254,0.003785008373104634,0.006775623256400881,4.580020822884998e-13,0.015849550449536773,0.014685396586977092,-106.23966239662397
0.0053426829215305225,0.003957191184345299,0.006908764755949667,5.810761457419864e-13,0.016208638862406567,0.014899544421666966,-106.07966079660797
0.0053962039167983755,0.004134365112330282,0.007042038865126937,7.363687166046291e-13,0.016572607894991962,0.015114596438905127,-105.91965919659197
0.005449463630118365,0.004316504793309836,0.007175353260871488,9.320823854597303e-13,0.01694132168523177,0.01533050210997212,-105.75965759657596
0.0055024438207621615,0.004503573280235121,0.007308613812888435,1.1784467406359954e-12,0.017314630915064164,0.015547209802088955,-105.59965599655996
0.005555126192612898,0.004695521636283381,0.007441724683427809,1.4882034480758358e-12,0.017692372513812293,0.01576466679317299,-105.43965439654397
0.00560749240438602,0.004892288552683143,0.007574588431971554,1.877203439840251e-12,0.01807436939091792,0.0159828192876085,-105.27965279652796
0.005659524079981867,0.00509379999350008,0.007707106124696365,2.36514115040028e-12,0.018460430200543457,0.016201612433031986,-105.11965119651197
0.005711202818962311,0.005299968870027116,0.007839177448566183,2.976456057747947e-12,0.018850349140532064,0.01642099033813226,-104.95964959649596
0.005762510207143133,0.00551069474738728,0.00797070082989298,3.741438185431469e-12,0.01924390578816483,0.01664089609146261,-104.79964799647996
0.005813427827294089,0.005725863585909724,0.008101573557191516,4.697581910009161e-12,0.01964086497509291,0.016861271781262975,-104.63964639646396
0.0058639372699380845,0.005945347519772243,0.008231691908139348,5.891241641792322e-12,0.020040976703740918,0.017082058516287944,-104.47964479644796
0.0059140201442408735,0.006169004675321428,0.008360951280440272,7.379653994614284e-12,0.020443976107382224,0.017303196447635512,-104.31964319643197
0.00596365808898249,0.00639667903138225,0.008489246326376284,9.233404273239427e-12,0.02084958345597443,0.017524624791570763,-104.15964159641595
0.0060128327836013705,0.006628200323751936,0.008616471090820218,1.1539430884720837e-11,0.021257504209712955,0.017746281853336793,-103.99963999639996
0.00606152595930222,0.0068633839959414,0.008742519152469682,1.4404680091116972e-11,0.02166742912211798,0.01796810505194533,-103.83963839638396
0.0061097194102181455,0.007102031198075991,0.008867283768050146,1.7960545913586817e-11,0.02207903439430483,0.018190030945936707,-103.67963679636796
0.006157395004617852,0.007343928835703545,0.008990658019224898,2.2368256612071384e-11,0.022491981881914553,0.018411995260099324,-103.51963519635197
0.006204534696148315,0.0075888496700749625,0.009112534961938257,2.782540074638418e-11,0.022905919355986935,0.01863393291313671,-103.35963359633595
0.006251120535103236,0.007836552471265901,0.009232807777908556,3.4573823241223993e-11,0.023320480818851515,0.018855778046269017,-103.19963199631997
0.006297134679707731,0.008086782225298204,0.009351369927978597,4.2909166136704935e-11,0.023735286875893696,0.019077464052755812,-103.03963039630396
0.006342559407409222,0.008339270396192798,0.00946811530702168,5.3192380974505554e-11,0.02414994516381608,0.019298923608324157,-102.87962879628796
0.006387377126164783,0.008593735243650383,0.009582938400094406,6.586360139749164e-11,0.024564050835773173,0.019520088702486605,-102.71962719627196
0.006431570385714911,0.008849882196805575,0.009695734439519682,8.145883708516088e-11,0.024977187103499002,0.019740890670731374,-102.55962559625596
0.006475121888833687,0.009107404284241267,0.009806399562577263,1.0063003540259875e-10,0.02538892583628225,0.019961260227566464,-102.39962399623997
0.006518014502545292,0.00936598262018115,0.009914830969473792,1.241691571687762e-10,0.02579882821636939,0.020181127500398358,-102.23962239622395
0.006560231269296669,0.009625286946501277,0.01002092708125931,1.530370301159169e-10,0.026206445450094287,0.020400422064224287,-102.07962079620796
0.006601755418076362,0.009884976229920241,0.010124587697354153,1.8839788062239373e-10,0.026611319533748637,0.020619072977117257,-101.91961919619196
0.006642570375469176,0.010144699313438088,0.010225714152346441,2.3166060424812755e-10,0.02701298407291431,0.02083700881648018,-101.75961759617596
0.006682659776636688,0.01040409562080577,0.010324209471719387,2.845280220071908e-10,0.027410965153689865,0.021054157716046084,-101.59961599615997
0.006722007476213368,0.010662795912514119,0.010419978526166083,3.4905558618213127e-10,0.027804782263949154,0.021270447403599475,-101.43961439614395
0.006760597559108195,0.010920423091500217,0.010512928184149629,4.277212513625327e-10,0.028193949262479295,0.02148580523939268,-101.27961279612796
0.006798414351201786,0.01117659305648166,0.010602967462367755,5.235085184194854e-10,0.02857797539355972,0.021700158255231212,-101.11961119611196
0.006835442429928848,0.011430915600542643,0.010690007673782465,6.400049971134287e-10,0.028956366344258952,0.021913433194199524,-100.95960959609596
0.006871666634736125,0.011682995352319692,0.01077396257287879,7.815192235168833e-10,0.029328625341453834,0.022125556550999223,-100.79960799607996
0.006907072077405849,0.011932432756863004,0.010854748497820251,9.532189187625447e-10,0.029694254285308027,0.02233645461286973,-100.63960639606395
0.006941644152234915,0.012178825092989759,0.010932284509173737,1.1612943940371916e-09,0.030052754915692807,0.022546053501061043,-100.47960479604797
0.006975368546060056,0.012421767523697032,0.011006492524882323,1.4131514024371965e-09,0.03040363000779081,0.02275427921282738,-100.31960319603195
0.00700823124811934,0.012660854175966364,0.011077297451171255,1.7176384215424907e-09,0.03074638459289538,0.022961057663909025,-100.15960159601596
0.007040218559740634,0.012895679246073698,0.011144627309080467,2.0853141327617738e-09,0.031080527200208933,0.02316631473147027,-99.99959999599996
0.007071317103847485,0.013125838126313663,0.011208413356325105,2.5287617572921174e-09,0.03140557111524801,0.0233699762974586,-99.83959839598396
0.0071015138342733495,0.01335092854886527,0.011268590204195727,3.0629579279023233e-09,0.03172103565029227,0.0235719682923515,-99.67959679596797
0.0071307960448750264,0.01357055174236082,0.011325095929219927,3.7057049360824373e-09,0.03202644742216071,0.023772216739255222,-99.51959519595195
0.007159151378436373,0.013784313596577684,0.011377872179318514,4.4781365123166525e-09,0.03232134163246909,0.023970647798319485,-99.35959359593596
0.007186567835353666,0.013991825830554165,0.01142686427420178,5.40530879184969e-09,0.032605263345418405,0.02416718781143216,-99.19959199591996
0.007213033782093943,0.01419270715933332,0.011472021299763841,6.5168898095122554e-09,0.03287776875808091,0.024361763347155962,-99.03959039590396
0.007238537959418098,0.014386584454469987,0.011513296196247254,7.847962776917874e-09,0.033138426458098114,0.02455430124587017,-98.87958879588795
0.007263069490360517,0.014573093893390182,0.011550645839964015,9.439960547392596e-09,0.033386818663675266,0.02474472866507875,-98.71958719587195
0.007286617887957385,0.014751882092674492,0.011584031118374423,1.1341751093997073e-08,0.033622542440757394,0.024932973124846238,-98.55958559585596
0.007309173062715972,0.014922607220345744,0.011613416998340835,1.361089654146763e-08,0.03384521089229909,0.025118962553322376,-98.39958399583995
0.007330725329817407,0.015084940082276914,0.011638772587389488,1.6315111333255508e-08,0.03405445431459514,0.025302625332315563,-98.23958239582396
0.0073512654160458445,0.015238565177899838,0.011660071187830598,1.9533948511401004e-08,0.034249921315724796,0.02548389034287588,-98.07958079580796
0.007370784466436969,0.015383181720484725,0.011677290343603848,2.3360746872811837e-08,0.03443127989127241,0.02566268701084668,-97.91957919579195
0.007389274050639242,0.015518504617380134,0.011690411879734325,2.7904875975519974e-08,0.03459821845262968,0.025838945352344884,-97.75957759577597
0.007406726168981475,0.015644265405746965,0.011699421934301799,3.3294320639029366e-08,0.034750446803350876,0.026012596019129034,-97.59957599575995
0.007423133258240594,0.015760213139491195,0.011704310982844636,3.967865175177211e-08,0.03488769705922818,0.026183570343814053,-97.43957439574396
0.00743848819710382,0.015866115223297023,0.011705073855138233,4.723243590493678e-08,0.03500972450797498,0.02635180038489225,-97.27957279572796
0.007452784311319693,0.015961758189881624,0.01170170974430656,5.6159142655180374e-08,0.035116308404650534,0.026517218971518774,-97.11957119571196
0.007466015378532753,0.01604694841683774,0.011694222208244353,6.669561511931872e-08,0.03520725269922997,0.026679759748021028,-96.95956959569595
0.0074781756327969824,0.016121512779695073,0.011682619163346454,7.911717716197848e-08,0.03528238669301567,0.026839357218090623,-96.79956799567995
0.0074892597687633905,0.01618529923811799,0.011666912870559761,9.374345869201008e-08,0.03534156562089984,0.02699594678861689,-96.63956639566396
0.007499262945537533,0.016238177352461552,0.011647119913792163,1.109450295733658e-07,0.03538467115682082,0.027149464813121207,-96.47956479564795
0.007508180790202986,0.016280038728229418,0.011623261170731756,1.3115094241725402e-07,0.03541161184010658,0.027299848634750986,-96.31956319563196
0.0075160094010072315,0.01631079738631419,0.011595361776148122,1.5485729508803426e-07,0.03542232342076464,0.027447036628793477,-96.15956159561595
0.007522745350206679,0.01633039005724989,0.01156345107776605,1.8263693515441874e-07,0.035416769122157764,0.027590968244668276,-95.99955999559995
0.0075283856865679165,0.016338776398067193,0.011527562584820102,2.151504407746531e-07,0.035394939819895985,0.027731584047359297,-95.83955839558396
0.00753292793752266,0.01633593913071107,0.01148773390941625,2.5315852563673856e-07,0.03535685413617562,0.02786882575824621,-95.67955679556795
0.007536370110974167,0.01632188410135605,0.0114440067008443,2.9753602959257795e-07,0.03530255844920411,0.028002636295296143,-95.51955519555196
0.007538710696753292,0.016296640260334106,0.011396426573001535,3.492876715289704e-07,0.03523212681776046,0.02813295981257727,-95.35955359553596
0.007539948667722683,0.01626025956277169,0.011345043025104787,4.0956575679745864e-07,0.03514566082135596,0.028259741739055506,-95.19955199551995
0.00754008348052799,0.016212816790413167,0.011289909355883716,4.796900481569056e-07,0.03504328931687303,0.028382928816637135,-95.03955039550395
0.007539115075995312,0.01615440929548596,0.01123108257146353,5.611700266281459e-07,0.03492516811297143,0.02850246913741994,-94.87954879548795
0.0075370438791744895,0.01608515666783531,0.011168623287160007,6.557297868647972e-07,0.03479147956395667,0.028618312180116578,-94.71954719547196
0.007533870799028176,0.01600520032692164,0.011102595623423528,7.653358305340013e-07,0.03464243208520388,0.028730408845614414,-94.55954559545594
0.0075295972277670325,0.015914703040628912,0.011033067096182222,8.922280406796479e-07,0.03447825959261885,0.028838711491636648,-94.39954399543996
0.007524225039831707,0.015813848373175385,0.010960108501846418,1.0389541399904637e-06,0.0342992208689935,0.02894317396647086,-94.23954239542395
0.007517756590522644,0.015702840064747953,0.010883793797248728,1.2084079561688113e-06,0.0341055988604755,0.029043751641731112,-94.07954079540795
0.007510194714279136,0.015581901345794083,0.010804199974804356,1.4038718380221249e-06,0.0338976999067156,0.029140401444121437,-93.91953919539195
0.007501542722609363,0.015451274189201135,0.01072140693318652,1.6290635862700782e-06,0.03367585290858329,0.02923308188616886,-93.75953759537595
0.007491804401673552,0.015311218503868691,0.010635497343820743,1.88818828314082e-06,0.033440408437646126,0.02932175309589538,-93.59953599535996
0.007480984009522708,0.01516201127343419,0.010546556513509836,2.185995424344612e-06,0.03319173779189107,0.029406376845399138,-93.43953439534394
0.007469086272995756,0.015003945644144845,0.010454672243508848,2.5278417756515917e-06,0.0329302320024251,0.02948691657831608,-93.27953279532795
0.0074561163842782364,0.014837329966076479,0.010359934685374925,2.9197603937142794e-06,0.032656300796123354,0.029563337436134686,-93.11953119531195
0.007442079997126087,0.014662486792084754,0.01026243619392304,3.368536266568651e-06,0.032370371519400455,0.029635606283336946,-92.95952959529595
0.00742698322275833,0.014479751839030934,0.010162271177622136,3.881789042994371e-06,0.0320728880284544,0.029703691731340486,-92.79952799527996
0.007410832625422856,0.014289472915956489,0.010059535946769928,4.468063331132332e-06,0.0317643095514804,0.029767564161217473,-92.63952639526394
0.007393635217639825,0.014092008823985393,0.00995432855978701,5.1369270549301065e-06,0.03144510952846716,0.02982719574516727,-92.47952479524795
0.007375398455127452,0.01388772823280909,0.00984674866797174,5.899078361557014e-06,0.031115774434269838,0.02988256046672122,-92.31952319523195
0.007356130231415403,0.013677008538660365,0.00973689735905859,6.766461573284482e-06,0.03077680259070764,0.02993363413965875,-92.15952159521595
0.007335838872151166,0.01346023470870302,0.009624876999921232,7.752392672841074e-06,0.030428702973448258,0.029980394425615824,-91.99951999519995
0.0073145331291052,0.013237798116760416,0.009510791078760678,8.871694801228574e-06,0.030071994019427523,0.03002282085036757,-91.83951839518394
0.007292222173880883,0.013010095375273806,0.009394744047116035,1.0140844230726393e-05,0.02970720244050145,0.03006089481876862,-91.67951679516796
0.007268915591335583,0.012777527168323458,0.009276841162032111,1.1578127252573355e-05,0.029334862048943727,0.030094599628335855,-91.51951519515194
0.007244623372719489,0.012540497090462914,0.009157188328714023,1.3203808387831964e-05,0.028955512600284262,0.03012392048145957,-91.35951359513595
0.007219355908539011,0.012299410496007638,0.0090358919439932,1.5040310290450974e-05,0.0285696986588303,0.03014884449623076,-91.19951199511995
0.007193123981151966,0.01205467336329001,0.008913058740924098,1.7112405662733543e-05,0.028177968491028806,0.03016936071587325,-91.03951039510395
0.007165938757101879,0.011806691178237398,0.008788795634823172,1.9447421444552852e-05,0.027780872991607,0.030185460116771062,-90.87950879508796
0.007137811779199018,0.011555867841456905,0.0086632095710546,2.2075455467928948e-05,0.027378964647178455,0.030197135615082887,-90.71950719507194
0.007108754958356103,0.011302604602816728,0.008536407374858956,2.5029605687272757e-05,0.026972796541719062,0.030204382071936656,-90.55950559505595
0.007078780565186633,0.011047299027301472,0.00840849560351125,2.8346212002028287e-05,0.026562921408001382,0.030207196297199132,-90.39950399503995
0.007047901221374278,0.010790343995692958,0.00827958040108607,3.206511058191161e-05,0.026149890728735217,0.030205577051816427,-90.23950239502395
0.007016129890821696,0.010532126743383972,0.008149767356096143,3.622990048495853e-05,0.025734253890786773,0.0301995250487232,-90.07950079500795
0.0069834798705875455,0.01027302794037902,0.008019161362260288,4.0888222224592554e-05,0.025316557395451446,0.030189042952319528,-89.91949919499194
0.006949964781620508,0.010013420815269925,0.007887866482644995,4.6092047793594276e-05,0.024897344127329024,0.03017413537651597,-89.75949759497595
0.006915598559299364,0.00975367032569946,0.007755985817411682,5.1897981489924024e-05,0.024477152683900428,0.03015480888134891,-89.59949599495994
0.006880395443788343,0.009494132377545284,0.0076236213753896175,5.836757071170064e-05,0.024056516767434945,0.030131071968169564,-89.43949439494395
0.006844369970216993,0.009235153094768201,0.00749087394968078,6.5567625696418e-05,0.023635964640362394,0.03010293507341168,-89.27949279492795
0.006807536958694149,0.008977068141580601,0.007357842997490702,7.357054697280032e-05,0.02321601864473825,0.030070410560944217,-89.11949119491194
0.006769911504165496,0.008720202098297474,0.007224626524364732,8.245465907321643e-05,0.022797194785900917,0.03003351271301699,-88.95948959489596
0.006731508966124455,0.00846486789194241,0.007091320972995851,9.230454882080228e-05,0.02238000237988352,0.029992257719808405,-88.79948799487994
0.006692344958186248,0.008211366282391807,0.0069580211167561586,0.00010321140625943488,0.021964943763593647,0.029946663667586155,-88.63948639486395
0.00665243533753487,0.007959985404554237,0.006824819958089135,0.00011527336603769196,0.021552514066215934,0.029896750525492826,-88.47948479484795
0.006611796194253144,0.007711000366804049,0.0066918086318865444,0.00012859584679125014,0.021143201039734986,0.0298425401309701,-88.31948319483195
0.006570443840545661,0.007464672905613521,0.0065590763139582045,0.00014329188579387974,0.020737484945911266,0.029784056173836296,-88.15948159481594
0.006528394799864837,0.007221251096065015,0.0064267101346891335,0.000159482465867108,0.020335838496486094,0.029721324179033653,-87.99947999479994
0.006485665795950106,0.006980969117669461,0.006294795097963777,0.00017729683125536832,0.01993872684283871,0.029654371488062766,-87.83947839478395
0.006442273741790394,0.006744047074674092,0.0061634140054224905,0.00019687278888968216,0.01954660761077666,0.02958322723912324,-87.67947679476794
0.006398235728520106,0.006510690869811664,0.0060326473861016,0.0002183569911816586,0.01915993097561503,0.02950792234598072,-87.51947519475195
0.006353569014258601,0.006281092130224107,0.005902573431493269,0.00024190519621442456,0.018779139772190402,0.0294284894755816,-87.35947359473595
0.006308291012903511,0.006055428184091449,0.005773267936048623,0.00026768250093130527,0.01840466963397489,0.029344963024438387,-87.19947199471994
0.006262419282887854,0.0058338620863058735,0.005644804243132659,0.0002958635426712104,0.018036949154997598,0.029257379093809325,-87.03947039470395
0.006215971515911086,0.0056165426913583755,0.0055172531964266715,0.0003266326641654469,0.01767640006786158,0.029165775463697502,-86.87946879468794
0.0061689655256542105,0.0054036047714478095,0.0053906830967606735,0.0003601840368989007,0.017323437430761594,0.02907019156569576,-86.71946719467195
0.006121419236488742,0.005195169177679847,0.005265159664344873,0.00039672173755401065,0.01697846981606747,0.02897066845470434,-86.55946559465595
0.0060733506721896814,0.00499134304210061,0.005140746006357703,0.00043645977210307217,0.016641899492751067,0.028867248779550176,-86.39946399463994
0.006024777944662139,0.004792220018200152,0.0050175025898349275,0.0004796220419989753,0.016314122594696195,0.02875997675253682,-86.23946239462394
0.00597571924269148,0.004597880557431312,0.004895487219793232,0.0005264422468407555,0.015995529266756778,0.028648898117955696,-86.07946079460794
0.005926192820726597,0.0044083922192146826,0.004774755022510345,0.0005771637178640409,0.015686503780315664,0.028534060119589925,-85.91945919459195
0.00587621698770584,0.004223810011842725,0.00465535843387294,0.0006320391766323416,0.015387424610053848,0.028415511467243058,-85.75945759457593
0.005825810095935101,0.004044176761655149,0.0045373471926936785,0.0006913304133880191,0.015098664463671946,0.028293302302326066,-85.59945599455995
0.005774990530027196,0.0038695235078308916,0.004420768338888389,0.0007553078796669021,0.014820590256413378,0.02816748416253617,-85.43945439454394
0.005723776695911881,0.003699869920133262,0.004305666216396218,0.0008242501899912009,0.014553563022432561,0.02803810994566289,-85.27945279452794
0.005672187009925345,0.0035352247369477762,0.00419208248071601,0.000898443527737223,0.014297937755326354,0.0279052338725564,-85.11945119451195
0.005620239887988085,0.0033755862209716033,0.004080056110924761,0.000978180950629394,0.014054063170513843,0.027768911449294605,-84.95944959449594
0.0055679537348799065,0.003220942629945492,0.00396962342603654,0.0010637615917441768,0.013822281382606114,0.0276291994285861,-84.79944799447995
0.005515346933620343,0.003071272699862731,0.003860818105552831,0.0011554897524192586,0.013602927491455164,0.027486155770445952,-84.63944639446393
0.005462437834963103,0.0029265461381474725,0.0037536712140500096,0.001253673884054879,0.013396329071215463,0.02733983960218314,-84.47944479444794
0.005409244747012334,0.0027867241243602647,0.0036482112296427793,0.0013586254564688642,0.013202805557484243,0.02719031117773752,-84.31944319443194
0.005355785924968928,0.0026517598160675994,0.003544464076158552,0.0014706577112213438,0.013022667528416423,0.027037631836406055,-84.15944159441594
0.005302079561014366,0.002521598857597267,0.003442453158852297,0.0015900842991615825,0.012856215876625514,0.026881863960997295,-83.99943999439995
0.005248143774339667,0.002396179889496583,0.0033421994034880907,0.001717217802362741,0.012703740869687083,0.026723070935454216,-83.83943839438393
0.005193996601326797,0.002275435056612179,0.003243721298610288,0.001852368141598992,0.012565521098148255,0.026561317101985754,-83.67943679436794
0.0051396559858894,0.0021592905128173497,0.003147034940824086,0.0019958408715790763,0.012441822311109912,0.026396667717746992,-83.51943519435194
0.005085139769979881,0.0020476669205271403,0.0030521540829039173,0.002147935367272987,0.012332896140683926,0.02622918891110937,-83.35943359433594
0.005030465684269249,0.0019404799432578752,0.0029590901845457655,0.0023089429058508098,0.0122389787179237,0.026058947637561253,-83.19943199431994
0.00497565133900613,0.0018376407296094358,0.0028678524655790807,0.0024791446499827763,0.012160289184177423,0.025886011635280082,-83.03943039430393
0.0049207142150610155,0.0017390563871717186,0.0027784479614532567,0.0026588095395206394,0.01209702810320663,0.02571044938041722,-82.87942879428795
0.0048656716551615485,0.0016446304449818313,0.0026908815808137244,0.002848192099880583,0.012049375780837687,0.02553233004213639,-82.71942719427193
0.00481054085532451,0.0015542633032846174,0.0026051561649835455,0.003047530176765094,0.012017490500357766,0.02535172343744726,-82.55942559425594
0.004755338856489632,0.0014678526694745062,0.0025212725491669573,0.003257042608184276,0.012001506683315372,0.025168699985874385,-82.39942399423994
0.004700082536360504,0.001385293979222532,0.0024392296251936024,0.0034769268460486673,0.012001532986825306,0.02498333066400346,-82.23942239422394
0.004644788601457175,0.0013064808019152432,0.0023590244056234913,0.0037073565408955963,0.012017650349891506,0.024795686959944743,-82.07942079420795
0.0045894735793850176,0.0012313052296542312,0.0022806520890356163,0.00394847910455932,0.012049910002634185,0.024605840827754563,-81.91941919419193
0.004534153811324164,0.0011596582491837338,0.002204106126326005,0.004200413266788004,0.012098331453621908,0.024413864641855507,-81.75941759417594
0.0044788454447432825,0.0010914300962288545,0.002129378287843825,0.004463246642932236,0.012162900471748199,0.024219831151494467,-81.59941599415994
0.00442356442634162,0.0010265105918392308,0.002056458731198454,0.004737033330858715,0.01224356708023802,0.02402381343527915,-81.43941439414394
0.004368326495222513,0.0009647894604397793,0.0019853360695737143,0.005021791556169225,0.01234024358140523,0.023825884855831595,-81.27941279412794
0.004313147176301619,0.0009061566293932761,0.0019159974403902213,0.005317501385604828,0.012452802631689944,0.0236261190145979,-81.11941119411193
0.0042580417739526925,0.0008505025099771281,0.0018484285741611692,0.005624102529177417,0.012581075387268405,0.023424589706852423,-80.95940959409594
0.004203025365893419,0.0007977182597691253,0.0017826138633917322,0.005941492252077108,0.012724849741131385,0.02322137087693421,-80.79940799407993
0.004148112797313777,0.0007476960265240418,0.0017185364313775282,0.006269523417739178,0.012883868672954525,0.023016536573753365,-80.63940639406394
0.004093318675248693,0.0007003291737038362,0.001656178200762554,0.006608002683608132,0.013057828733323215,0.02281016090660325,-80.47940479404794
0.004038657363197019,0.0006555124879000159,0.0015955199617230266,0.006956688871089755,0.013246378683909817,0.02260231800131564,-80.31940319403193
0.003984142975988093,0.0006131423684556913,0.0015365414396487588,0.007315291530933457,0.013449118315026,0.022393081956793397,-80.15940159401595
0.0039297893748971805,0.0005731169996585548,0.0014792213621998593,0.007683469724818592,0.013665597461574187,0.022182526801955697,-79.99939999399993
0.003875610163010781,0.0005353365059334246,0.00142353752562249,0.008060831043228862,0.013895315237795558,0.021970726453130085,-79.83939839398394
0.0038216186808423085,0.0004997030905142755,0.0013694668602132196,0.008446930878783844,0.014137719510353648,0.021757754671923788,-79.67939679396794
0.0037678280021987455,0.00046612115812162295,0.0013169854948281373,0.008841271973047984,0.014392206628196489,0.021543685023607647,-79.51939519395194
0.003714250930298272,0.00043449742221063743,0.0012660688203385993,0.009243304253465812,0.014658121426313321,0.021328590836043507,-79.35939359393593
0.003660899994138817,0.0004047409973898104,0.001216691551942118,0.009652424975470244,0.014934757518940989,0.021112545159186105,-79.19939199391993
0.003607787445117165,0.00037676347763863216,0.0011688277902429443,0.010067979182992893,0.015221357895991635,0.020895620725189298,-79.03939039390394
0.0035549252538979643,0.0003504790009762591,0.0011224510810232508,0.010489260498576113,0.015517115834473587,0.020677889909145326,-78.87938879388793
0.003502325107531872,0.00032580430125164506,0.0010775344736320988,0.010915512252058411,0.01582117613447403,0.020459424690485627,-78.71938719387194
0.0034499984068215588,0.0003026587477390816,0.0010340505779253628,0.011345928954396269,0.016132636686882272,0.020240296615069257,-78.55938559385594
0.0033979562639344504,0.0002809643732323653,0.00099197161969628,0.011779658120605864,0.01645055037746896,0.020020576757986144,-78.39938399383993
0.003346209500260471,0.00026064589133536207,0.0009512694945419636,0.01221580244308966,0.01677392732922746,0.019800335687099244,-78.23938239382394
0.003294768644513038,0.0002416307036475773,0.0009119158201174697,0.012653422313766613,0.017101737482044698,0.019579643427349986,-78.07938079380793
0.003243643931071389,0.00022384889754031075,0.0008738819867347908,0.013091538690483339,0.01743291350582983,0.019358569425850302,-77.91937919379194
0.0031928452985618043,0.00020723323521239112,0.0008371392062697553,0.01352913630017464,0.01776635404021859,0.019137182517782278,-77.75937759377594
0.0031423823886755405,0.0001917191347049709,0.0008016585593456949,0.013965167168186939,0.018100927250913147,0.018915550893127367,-77.59937599375993
0.0030922645452206134,0.00017724464354215082,0.0007674110407679218,0.014398554460120607,0.018435474689651295,0.018693742064244047,-77.43937439374393
0.0030425008134047273,0.00016375040564916275,0.000734367603188557,0.014828196619506484,0.01876881544174893,0.018471822834313076,-77.27937279372793
0.002993099939346272,0.00015117962218229997,0.0007024991989862964,0.015252971781649955,0.019099750542164826,0.018249859266667817,-77.11937119371194
0.0029440703698101643,0.00013947800688528562,0.000671776820350693,0.015671742441082128,0.01942706763812827,0.018027916655025903,-76.95936959369593
0.002895420252165225,0.00012859373656549843,0.0006421715375653587,0.016083360347284765,0.019749545873580847,0.017806059494638152,-76.79936799367994
0.0028471574345593723,0.00011847739726060307,0.0006136545354889361,0.016486671600741805,0.020065960968050717,0.017584351454368034,-76.63936639366393
0.0027992894663091176,0.00010908192664216354,0.0005861971482373102,0.016880521918937887,0.020375090460126477,0.01736285534971592,-76.47936479364793
0.0027518235984993087,0.00010036255317763865,0.0005597708920745025,0.017263762039717266,0.020675719083468717,0.017141633116799133,-76.31936319363194
0.0027047667847891702,9.227673254633003e-05,0.000534347496523802,0.017635253227451606,0.02096664424131091,0.016920745787299164,-76.15936159361593
0.002658125682420518,8.478408177839063e-05,0.0005098989337144821,0.017993872845776752,0.02124668154369014,0.016700253464385938,-75.99935999359994
0.0026119066534236904,7.784631155912983e-05,0.0004863974459828789,0.01833851995927142,0.02151467037023712,0.01648021529962701,-75.83935839358394
0.0025661157660169624,7.142715711389261e-05,0.0004638155717501695,0.01866812092537924,0.021769479420260262,0.016260689470890186,-75.67935679356793
0.002520758796194734,6.549230806169711e-05,0.00044212616970213374,0.018981634937149168,0.02201001221110773,0.016041733161245176,-75.51935519355193
0.0024758412294998934,6.000933759897533e-05,0.0004213024412992355,0.019278059476991675,0.02223521248538978,0.015823402538869904,-75.35935359353593
0.0024313682629755855,5.4947631348159924e-05,0.0004013179516480318,0.01955643564163821,0.022444069487609984,0.015605752737965682,-75.19935199351993
0.0023873448072915045,5.0278316179706645e-05,0.0003821466487674122,0.019815853298851858,0.02263562307109048,0.015388837840684245,-75.03935039350394
0.002343775489039738,4.597418929053708e-05,0.00036376288128548437,0.020055456037172514,0.022808968596788274,0.015172710860068666,-74.87934879348794
0.002300664653195168,4.200964779694233e-05,0.00034614141460501233,0.020274445871086854,0.022963261586683978,0.014957423724009376,-74.71934719347193
0.002258016365735246,3.836061907576837e-05,0.0003292574455771656,0.02047208766548873,0.02309772209587691,0.014743027260214796,-74.55934559345593
0.0022158344164140004,3.5004492064344687e-05,0.0003130866157250653,0.02064771324512508,0.023211638769328493,0.014529571182195855,-74.39934399343993
0.002174122321685011,3.1920049707127e-05,0.00029760502306006985,0.020800725156895246,0.023304372551347454,0.014317104076262003,-74.23934239342393
0.0021328833277680583,2.908740271549401e-05,0.0002827892325350644,0.02093060005536591,0.023375360018384528,0.014105673389525782,-74.07934079340794
0.0020921204138540546,2.648792478660548e-05,0.0002686162851801081,0.021036891684659068,0.023424116308479834,0.013895325418911584,-73.91933919339193
0.002051836295442956,2.4104189407725677e-05,0.0002550637059667698,0.021119233432938225,0.023450237623755678,0.013686105301163942,-73.75933759337593
0.0020120334278091274,2.1919908353958543e-05,0.0002421095104481827,0.021177340439030353,0.023453403285641623,0.01347805700384879,-73.59933599335993
0.0019727140095887837,1.991987196997009e-05,0.00022973221022250462,0.021211011234243238,0.023433377326024497,0.01327122331734122,-73.43933439334393
0.001933879986484008,1.8089891309966686e-05,0.00021791081726786493,0.021220128906135647,0.023390009601197487,0.013065645847791579,-73.27933279332792
0.0018955330550778794,1.641674219497382e-05,0.00020662484719716974,0.021204661774832552,0.023323236419302576,0.012861365011061388,-73.11933119331194
0.0018576746667551987,1.4888111232304933e-05,0.00019585432148127,0.021164663576410208,0.02323308067587898,0.012658420027619254,-72.95932959329593
0.0018203060317233783,1.3492543829013535e-05,0.00018557976868899517,0.021100273151865506,0.023119651496106893,0.012456848918386736,-72.79932799327993
0.0017834281231279428,1.2219394219053571e-05,0.00017578222479239803,0.02101171364418898,0.022983143386328377,0.01225668850152253,-72.63932639326393
0.001747041681257238,1.1058777512827852e-05,0.00016644323258530475,0.02089929121003976,0.02282383490139513,0.012057974390133239,-72.47932479324793
0.001711147217830864,1.0001523767733545e-05,0.0001575448402628782,0.020763393256431832,0.02264208683829331,0.011860740990897943,-72.31932319323192
0.0016757450203664312,9.039134069198186e-06,0.00014906959920940116,0.020604486216644204,0.022438339970289236,0.011665021503592984,-72.15932159321594
0.0016408351566192159,8.163738603495683e-06,0.00014100056104089087,0.02042311288322339,0.022213112339486994,0.011470847921502847,-71.99931999319993
0.001606417479089419,7.3680566963093435e-06,0.00013332127394846815,0.020219889319418153,0.02196699612915235,0.011278251032702403,-71.83931839318393
0.0015724916295916439,6.645358784515117e-06,0.00012601577838760642,0.01999550137363812,0.021700654140401884,0.011087260422194777,-71.67931679316793
0.00153905704388138,5.989430282966348e-06,0.00011906860215753586,0.01975070082452855,0.021414815900850433,0.010897904474888904,-71.51931519315193
0.0015061129563332513,5.3945373031145876e-06,0.00011246475491412775,0.019486301186973014,0.02111027343552351,0.010710210379400058,-71.35931359313592
0.0014736584046658938,4.855394176064355e-06,0.00010618972215858535,0.019203173211749233,0.020787876732749778,0.010524204132656057,-71.19931199311993
0.0014416922347083327,4.367132729083607e-06,0.00010022945874318709,0.018902240113648675,0.020448528939829277,0.010339910545291306,-71.03931039310393
0.0014102131052028928,3.925273261637831e-06,9.457038193422532e-05,0.018584472564610738,0.020093181325009493,0.01015735324781068,-70.87930879308793
0.0013792194926396102,3.525697164630647e-06,8.919936407108727e-05,0.018250883489801837,0.019722828043677164,0.009976554697504044,-70.71930719307193
0.0013487096961173205,3.1646211246871006e-06,8.410372485923849e-05,0.0179025227055824,0.019338500747683646,0.009797536186092684,-70.55930559305592
0.0013186818422265992,2.8385728539523724e-06,7.92712233336071e-05,0.017540471438942672,0.018941263077356833,0.009620317848087707,-70.39930399303992
0.001289133889949838,2.5443682849663344e-06,7.469004952759351e-05,0.017165836768252687,0.018532205076015086,0.009444918669840728,-70.23930239302393
0.0012600636355738137,2.279090169668288e-06,7.034881588163172e-05,0.016779746025065632,0.018112437566690745,0.009271356499266208,-70.07930079300793
0.0012314687176102404,2.040068021449747e-06,6.623654842391053e-05,0.016383341196246366,0.017683086530301966,0.009099648056215232,-69.91929919299193
0.0012033466217198107,1.8248593393678502e-06,6.234267775452245e-05,0.015977773364877098,0.017245287523690797,0.008929808943479313,-69.75929759297593
0.0011756946856354082,1.6312320541240335e-06,5.8657029862975385e-05,0.015564197227240282,0.01680018017479279,0.008761853658403474,-69.59929599295992
0.0011485101040802225,1.4571481361670742e-06,5.5169816807654215e-05,0.015143765721709303,0.016348902790733345,0.008595795605086899,-69.43929439294392
0.0011217899336766186,1.3007483072647635e-06,5.187162728447057e-05,0.014717624803616268,0.01589258711288462,0.008431647107149729,-69.27929279292792
0.0010955310978417174,1.1603377980749788e-06,4.8753417110605284e-05,0.014286908398136528,0.015432353250886925,0.008269419421044123,-69.11929119291193
0.0010697303916657318,1.0343730956058519e-06,4.580649964790931e-05,0.013852733560959627,0.014969304825368873,0.008109122749887643,-68.95928959289593
0.0010443844867692631,9.214496259602712e-07,4.302253618921601e-05,0.013416195874036781,0.01450452434662122,0.007950766257797087,-68.79928799287993
0.001019489936135788,8.202903193870424e-07,4.0393526329505185e-05,0.012978365101034138,0.014039068853818818,0.007794358084700394,-68.63928639286392
0.0009950431789157645,7.29735006388081e-07,3.7911798342579e-05,0.012540281124315895,0.013573965836580626,0.007639905361604668,-68.47928479284792
0.0009710405451988562,6.48730595435925e-07,3.5569999582642764e-05,0.012102950182360411,0.013110209457737346,0.007487414226297933,-68.31928319283192
0.0009474782607508816,5.763219847206861e-07,3.3361086928941755e-05,0.011667341423512383,0.012648757093176926,0.0073368898394625464,-68.15928159281593
0.0009243524517122318,5.116436622520608e-07,3.1278317290390624e-05,0.011234383788926454,0.012190526201591329,0.007188336401177878,-67.99927999279993
0.0009016591492546383,4.539119505752109e-07,2.931523818594766e-05,0.010804963234496976,0.011736391533888137,0.00704175716779038,-67.83927839278392
0.000879394294193217,4.0241785430420794e-07,2.74656784153247e-05,0.010379920298523262,0.01128718268898611,0.006897154469128622,-67.67927679276792
0.0008575537415509125,3.5652047062151575e-07,2.5723738833505085e-05,0.009960048018865377,0.010843682019720417,0.006754529726041591,-67.51927519275192
0.0008361332650725496,3.156409248246015e-07,2.4083783241446286e-05,0.009546090200425725,0.010406622889664546,0.006613883468238193,-67.35927359273592
0.0008151285616858187,2.792567949117878e-07,2.2540429404290968e-05,0.009138740030977258,0.00997668827886228,0.0064752153524063405,-67.19927199271993
0.00079453525590664,2.468969910800955e-07,2.1088540207385862e-05,0.008738639040672404,0.00955450973377751,0.0063385241805899535,-67.03927039270393
0.0007743489041864979,2.1813705785051035e-07,1.97232149594297e-05,0.008346376398032202,0.00914066665423598,0.006203807918802637,-66.87926879268792
0.00075456499919941,1.925948683344817e-07,1.8439780851116504e-05,0.007962488532849032,0.008735685907767894,0.006071063715856685,-66.71926719267192
0.0007351789740663542,1.6992668190432728e-07,1.7233784576740096e-05,0.007587459074260153,0.008340041759585151,0.005940287922386582,-66.55926559265592
0.0007161862065150849,1.498235382248244e-07,1.6100984125348716e-05,0.007221719090272766,0.007954156104451425,0.00581147611004626,-66.39926399263992
0.0006975820229733739,1.3200796224038297e-07,1.5037340747209916e-05,0.006865647613258376,0.007578398984941201,0.005684623090859668,-66.23926239262393
0.0006793617025938431,1.1623095628874927e-07,1.4039011100549828e-05,0.006519572434392115,0.007213089379042796,0.005559722936704473,-66.07926079260793
0.0006615204812086807,1.0226925702639903e-07,1.3102339582777345e-05,0.006183771148697463,0.006858496238745948,0.00543676899890914,-65.91925919259192
0.0006440535552126149,8.992283630089419e-08,1.22238508496843e-05,0.005858472431269284,0.006514839760167884,0.005315753927943701,-65.75925759257592
0.0006269560853726721,7.901262649103381e-08,1.1400242525434872e-05,0.005543857524391259,0.006182292864915857,0.005196669693185103,-65.59925599255992
0.000610223200563335,6.937845215596568e-08,1.0628378105514926e-05,0.0052400619146316845,0.005860982871752691,0.005079507602738277,-65.43925439254392
0.0005938500014258378,6.087715108989775e-08,9.905280054206404e-06,0.004947177178591302,0.005550993337222436,0.004964258323294397,-65.27925279252793
0.0005778315639504341,5.338086907010925e-08,9.228123097583556e-06,0.004665252975779917,0.005252366043697005,0.004850911900008163,-65.11925119251192
0.0005621629429806131,4.677551371350465e-08,8.594227712494852e-06,0.0043942991671066965,0.004965103113313518,0.004739457776376554,-64.95924959249592
0.0005468391756382931,4.095935392216616e-08,8.001053811494779e-06,0.004134288037669017,0.004689169226472727,0.004629884814101465,-64.79924799247992
0.0005318552846691827,3.584175240272011e-08,7.4461946232268045e-06,0.0038851566029070523,0.0044244939239518645,0.0045221813129194995,-64.63924639246392
0.0005172062817075642,3.134201968945623e-08,6.927370767326457e-06,0.003646808977738534,0.004170973972233114,0.0044163350303823255,-64.47924479244791
0.0005028871704598795,2.738837898888147e-08,6.44242452251505e-06,0.0034191187889876054,0.003928475772348989,0.004312333201571557,-64.31924319243193
0.0004888929498065667,2.3917031995733404e-08,5.989314286185543e-06,0.0032019316122560877,0.0036968377933808355,0.004210162558732459,-64.15924159241592
0.0004752186168217485,2.0871316609518927e-08,5.56610922344599e-06,0.002995067415339606,0.0034758730127014102,0.0041098093508114605,-63.99923999239992
0.0004618591697103944,1.820094820850398e-08,5.170984103274756e-06,0.0027983229913458,0.0032653713461076777,0.004011259362882503,-63.83923839238392
0.0004488096106627385,1.5861336817068518e-08,4.8022143191633625e-06,0.0026114743658135022,0.0030651020521322214,0.003914497935448153,-63.67923679236792
0.0004360649486257816,1.3812973134630829e-08,4.45817109136716e-06,0.002434279163340251,0.0028748160960305347,0.0038195099836015817,-63.519235192351914
0.00042362020199182077,1.2020876982269282e-08,4.137316847656801e-06,0.0022664789204864663,0.002694248460202926,0.0037262800160360924,-63.359233592335926
0.00041147040120400756,1.045410226897097e-08,3.838200779259467e-06,0.0021078013330208946,0.0025231203891064305,0.0036347921538893227,-63.19923199231992
0.00039961059127906657,9.08529308536769e-09,3.5594545684994372e-06,0.0019579624268888716,0.002361141558029523,0.003545030149409819,-63.03923039230392
0.0003880358342473153,7.890286001094759e-09,3.299788284488939e-06,0.00181666864360676,0.0022080121564245652,0.0034569774044339663,-62.87922879228792
0.0003767412115102797,6.847754074703243e-09,3.057986443085098e-06,0.0016836188321006705,0.00206342487780811,0.003370616988661955,-62.719227192271916
0.00036572182611622453,5.9388884844816735e-09,2.832904227211454e-06,0.0015585061403008864,0.001927066809532807,0.003285931657721798,-62.55922559225591
0.0003549728049540122,5.147114056655069e-09,2.6234638635461646e-06,0.0014410198010648774,0.0017986212169964924,0.0032029038710109994,-62.399223992239925
0.0003444893008657652,4.4578353062148864e-09,2.428651151499106e-06,0.0013308468082205674,0.0016777692180731379,0.0031215158093058615,-62.23922239222392
0.0003342664946788899,3.858209917008269e-09,2.2475121403384266e-06,0.0012276734796888202,0.0015641913447179655,0.003041749392129046,-62.07922079220792
0.00032429959715806037,3.336946873503982e-09,2.079149950279602e-06,0.0011311869057513593,0.0014575689898065729,0.002963586294866296,-61.91921919219192
0.0003145838508778488,2.8841267186278876e-09,1.922721733319301e-06,0.0010410762815720187,0.0013575857383099055,0.0028870079656238648,-61.759217592175915
0.00030511453201673285,2.491041651879585e-09,1.777435769577796e-06,0.0009570341240487228,0.0012639285828766854,0.0028119956418186432,-61.59921599215991
0.0002958869520732753,2.1500534012089574e-09,1.6425486949087196e-06,0.0008787573739676083,0.0011762890247891936,0.0027385303664934045,-61.439214392143924
0.0002868964595053183,1.854467002347011e-09,1.517362855541738e-06,0.0008059483852457114,0.0010943640620735737,0.0026665930043500707,-61.27921279212792
0.00027813844129310453,1.5984188018822267e-09,1.4012237855415762e-06,0.0007383158037831237,0.0010178570672805718,0.002596164257494472,-61.11921119211192
0.0002696083244272582,1.3767771666930559e-09,1.2935178028944454e-06,0.0006755753390979733,0.0009464785581052926,0.002527224680886362,-60.95920959209592
0.00026130157732263563,1.1850545336595253e-09,1.193669720070222e-06,0.0006174504324890809,0.0008799468645863204,0.0024597546974890485,-60.799207992079914
0.0002532137111590802,1.0193295710683275e-09,1.1011406649541399e-06,0.0005636728259616622,0.0008179886971152676,0.0023937346131134287,-60.63920639206391
0.00024534028115016633,8.761783479113231e-10,1.0154260080949987e-06,0.0005139830365635638,0.000760339619900173,0.002329144630951617,-60.47920479204792
0.00023767688774105155,7.526135203977993e-10,9.360533922767453e-07,0.00046813074111533683,0.0007067444348621856,0.002265964865795819,-60.31920319203192
0.00023021917773660333,6.460306474279636e-10,8.625808604869468e-07,0.0004258750765804457,0.0006569574812081834,0.002204175357938615,-60.15920159201592
0.00022296284536098358,5.541608394114422e-10,7.945950784268902e-07,0.0003869848615153314,0.0006107428561155813,0.00214375608675107,-59.999199991999916
0.00021590363324992302,4.750290285026511e-10,7.317096477851078e-07,0.0003512387441676595,0.0005678745620943961,0.0020846869839357043,-59.83919839198391
0.00020903733337693822,4.0691722384157685e-10,6.735635065766709e-07,0.0003184252828587538,0.0005281365866594925,0.0020269479464516417,-59.67919679196791
0.0002023597879147738,3.483321834569923e-10,6.198194129353091e-07,0.0002883429642981529,0.0004913229199580455,0.001970518849109706,-59.51919519195191
0.0001958668900333735,2.9797699577499264e-10,5.701625088329202e-07,0.00026080016543915955,0.00045723751595836174,0.0019153795568356143,-59.35919359193592
0.00018955458463571092,2.547261187947096e-10,5.242989602913224e-07,0.00023561506439932113,0.0004256942027214422,0.001861509936599811,-59.19919199191992
0.00018341886903283487,2.1760347451149668e-10,4.819546707435169e-07,0.00021261550584411907,0.000396516547151172,0.001808889869012903,-59.039190391903915
0.00017745579355948554,1.8576324060641445e-10,4.428740642956733e-07,0.0001916388260706506,0.00036953767945767244,0.0017574992595859175,-58.87918879188791
0.0001716614621316722,1.5847302125850035e-10,4.068189357364552e-07,0.00017253164283606055,0.0003446000823764905,0.001707318049655091,-58.71918719187191
0.0001660320327476099,1.350991146106245e-10,3.735673642363952e-07,0.00015514961475743226,0.0003215553499683932,0.0016583262269711679,-58.55918559185591
0.00016056371793342068,1.1509362633264836e-10,3.42912687776746e-07,0.00013935717487068843,0.00030026392058551217,0.0016105038359535441,-58.39918399183992
0.00015525278513501826,9.798320724340303e-11,3.146625354439998e-07,0.0001250272426801026,0.00028059478833377207,0.0015638309876099229,-58.23918239182392
0.0001500955570576075,8.335921841051883e-11,2.886379148230904e-07,0.00011204091876155332,0.00026242519709320227,0.0015182878691225121,-58.079180791807914
0.00014508841195422228,7.086914984912435e-11,2.646723518183983e-07,0.00010028716570545015,0.0002456403208806407,0.0014738547531019872,-57.91917919179191
0.0001402277838647461,6.020913916444023e-11,2.426110803274071e-07,8.96624789031251e-05,0.0002301329340573378,0.001430512006510888,-57.75917759177591
0.00013551016280684928,5.111745448133227e-11,2.2231027928647633e-07,8.007055039652092e-05,0.00021580307460011117,0.001388240099258284,-57.59917599175991
0.00013093209492028403,4.336882200471675e-11,2.0363635470173294e-07,7.142192872833174e-05,0.00020255770337213952,0.001347019612467908,-57.43917439174392
0.00012649018256597283,3.6769492765609104e-11,1.8646526437034679e-07,6.363367745095597e-05,0.00019031036205079192,0.0013068312464221494,-57.279172791727916
0.00012218108438133052,3.115295571617067e-11,1.7068188308818483e-07,5.6629034680082634e-05,0.00017898083209745704,0.0012676558281846473,-57.119171191711914
0.00011800151529324413,2.637621551277945e-11,1.5617940622890902e-07,5.033707581440659e-05,0.00016849479689009513,0.0012294743189043482,-56.95916959169591
0.00011394824649014016,2.2316563222044548e-11,1.4285878966695e-07,4.469238128866374e-05,0.00015878350888503406,0.0011922678208042582,-56.79916799167991
0.00011001810535455667,1.8868776938630155e-11,1.3062822410220656e-07,3.9634710984225535e-05,0.00014978346343166133,0.001156017583858228,-56.639166391663906
0.0001062079753576269,1.594269703998336e-11,1.1940264192776426e-07,3.510868669108559e-05,0.0001414360806333373,0.0011207050121594215,-56.47916479164792
0.00010251479591687596,1.3461127633192557e-11,1.0910325486330657e-07,3.1063483798073066e-05,0.00013368739643093995,0.0010863116699842358,-56.319163191631915
9.893556221871885e-05,1.1358021773529163e-11,9.965712065612304e-08,2.7452533185182184e-05,0.00012648776388257893,0.0010528192875557155,-56.15916159161591
9.546732500703241e-05,9.576913342658957e-12,9.099673722863785e-08,2.4233234103398213e-05,0.0001197915654245726,0.0010202097665106024,-55.99915999159991
9.210719033916609e-05,8.069563147647612e-12,8.305966272617137e-08,2.1366678653579563e-05,0.00011355693672503498,0.0009884651850743946,-55.83915839158391
8.885231931073727e-05,6.794790911805188e-12,7.57881599911467e-08,1.881738831680211e-05,0.00010774550258232144,0.0009575678029489386,-55.679156791567905
8.56999277505432e-05,5.717468439562193e-12,6.912886406014955e-08,1.65530628439737e-05,0.00010232212517604549,0.0009275000659172088,-55.51915519155192
8.26472858869032e-05,4.8076524074636565e-12,6.303247134812813e-08,1.4544341682191496e-05,9.725466484809523e-05,0.0008982446101700761,-55.359153591535915
7.969171798673111e-05,4.0398380133055426e-12,5.745344924960126e-08,1.2764577998847979e-05,9.25137534746667e-05,0.0008697842663600352,-55.19915199151991
7.683060196861322e-05,3.3923171510871974e-12,5.2349764949957284e-08,1.1189625261368635e-05,8.807258038724896e-05,0.0008421020633869157,-55.03915039150391
7.406136899115256e-05,2.8466269114718628e-12,4.768263230089607e-08,9.79763624012088e-06,8.390669071020124e-05,0.000815181231920761,-54.87914879148791
7.138150301781994e-05,2.387076071932995e-12,4.341627567270896e-08,8.568874223785682e-06,7.99937959043544e-05,0.0007890052076671655,-54.719147191471905
6.878854035952844e-05,2.0003388697829045e-12,3.9517709752479255e-08,7.485536169636798e-06,7.631359623925657e-05,0.0007635576343804183,-54.559145591455916
6.628006919612815e-05,1.6751067732480057e-12,3.595653431145599e-08,6.531587454972546e-06,7.284761486051893e-05,0.0007388223666299019,-54.399143991439914
6.385372907800015e-05,1.4017902058485136e-12,3.2704743016809986e-08,5.692607849628233e-06,6.95790430724354e-05,0.0007147834723253046,-54.23914239142391
6.150721040889648e-05,1.1722632598260686e-12,2.9736545412780186e-08,4.955648292270974e-06,6.649259641884348e-05,0.0006914252350061861,-54.07914079140791
5.9238253911159064e-05,9.796453749256851e-13,2.702820124390968e-08,4.309098024276705e-06,6.357438111632505e-05,0.0006687321559015916,-53.919139191391906
5.7044650074423204e-05,8.181147768500258e-13,2.455786633868682e-08,3.742561613622012e-06,6.081177037249868e-05,0.0006466889557653866,-53.759137591375904
5.492423858888652e-05,6.827491804873476e-13,2.2305449315496596e-08,3.2467453866465643e-06,5.8193290107597765e-05,0.0006252805764930688,-53.599135991359915
5.287490776420069e-05,5.693898800669234e-13,2.025247841441303e-08,2.813352777016616e-06,5.57085135890216e-05,0.0006044921825257964,-53.43913439134391
5.089459393502091e-05,4.745258835941061e-13,1.8381977798073713e-08,2.434988098046223e-06,5.3347964485391085e-05,0.000584309162047488,-53.27913279132791
4.8981280854218345e-05,3.9519521270237626e-13,1.6678352702712994e-08,2.105068246037879e-06,5.110302784815415e-05,0.0005647171279807389,-53.11913119131191
4.713299907474049e-05,3.2890089060140496e-13,1.5127282856477683e-08,1.8177418478606059e-06,4.896586853435846e-05,0.0005457019187874327,-52.959129591295905
4.534782532107604e-05,2.7353948814032e-13,1.3715623616429919e-08,1.5678153749952179e-06,4.692935659322717e-05,0.0005272495990798479,-52.7991279912799
4.362388185125665e-05,2.2734039819390932e-13,1.243131430824227e-08,1.350685758195687e-06,4.498699915110097e-05,0.0005093464600481001,-52.639126391263915
4.195933581030156e-05,1.8881426778618118e-13,1.1263293283549099e-08,1.1622790512337673e-06,4.3132878343633143e-05,0.0004919790197097113,-52.47912479124791
4.035239857598713e-05,1.5670924098808636e-13,1.0201419239309586e-08,9.989947084472312e-07,4.136159486038291e-05,0.00047513402298713725,-52.31912319123191
3.8801325097794764e-05,1.2997385837845957e-13,9.236398371400302e-09,8.576550585766357e-07,3.966821668471666e-05,0.00045879844161899713,-52.15912159121591
3.7304413229867385e-05,1.0772562485537844e-13,8.359716961068613e-09,7.354595762733472e-07,3.804823263082742e-05,0.0004429594739107654,-51.999119991199905
3.586000305877843e-05,8.922440041664969e-14,7.563579017881377e-09,6.299435723503521e-07,3.649751029937106e-05,0.00042760454433064105,-51.8391183911839
3.4466476226890955e-05,7.384989131903086e-14,6.840848626461955e-09,5.389409440275728e-07,3.501225809339488e-05,0.000412721302956258,-51.679116791167914
3.312225525205901e-05,6.108262449570817e-14,6.1849966666774346e-09,4.605506468303729e-07,3.3588990956638684e-05,0.0003982976247778671,-51.51911519115191
3.1825802844400086e-05,5.048787862499872e-14,5.590051598069801e-09,3.931065702046465e-07,3.222449951669068e-05,0.0003843216088635766,-51.35911359113591
3.057562122083802e-05,4.170212285373554e-14,5.05055401927275e-09,3.351505191174136e-07,3.091582233567683e-05,0.0003707815773921577,-51.199111991119906
2.937025141809536e-05,3.442158066816438e-14,4.561514731977093e-09,2.854080237527401e-07,2.9660220991001656e-05,0.00035766607455889245,-51.039110391103904
2.8208272604785582e-05,2.8392593317725187e-14,4.1183760567481584e-09,2.4276671874981866e-07,2.845515772798474e-05,0.0003449638653598627,-50.8791087910879
2.70883013932334e-05,2.340350587035795e-14,3.7169761647108622e-09,2.0625705215105127e-07,2.729827544495267e-05,0.0003326639342600071,-50.71910719107191
2.6008991151624972e-05,1.9277840568923905e-14,3.3535162048508727e-09,1.750351022428015e-07,2.6187379789350466e-05,0.0003207554837502164,-50.55910559105591
2.4969031317068267e-05,1.5868557667113588e-14,3.0245300214813777e-09,1.483672977115029e-07,2.5120423160669808e-05,0.00030922793279865784,-50.39910399103991
2.396714671011642e-05,1.3053234213253499e-14,2.7268562703363783e-09,1.2561685295208062e-07,2.409549043239207e-05,0.00029807091520142636,-50.239102391023906
2.3002096851287045e-05,1.0730017066778785e-14,2.457612754824396e-09,1.0623174592070676e-07,2.3110786220692592e-05,0.00028727427783756726,-50.0791007910079
2.2072675280084886e-05,8.81422841673359e-15,2.214172816246242e-09,8.973408059928334e-08,2.2164623542314644e-05,0.0002768280788334014,-49.9190991909919
2.1177708877012913e-05,7.235520777374087e-15,1.9941436232939195e-09,7.571068992776311e-08,2.1255413717799493e-05,0.0002667225856410249,-49.7590975909759
2.0316057189035324e-05,5.935494338299553e-15,1.795346216942119e-09,6.380484796541981e-08,2.038165738915318e-05,0.00025694827303574485,-49.59909599095991
1.9486611758931682e-05,4.8657030542204725e-15,1.6157971769574572e-09,5.370897207557471e-08,1.9541936533049918e-05,0.0002474958210371292,-49.43909439094391
1.8688295458963357e-05,3.985987323422484e-15,1.4536917857220927e-09,4.515820710963896e-08,1.8734907361844704e-05,0.00023835611275826427,-49.279092790927905
1.7920061829247073e-05,3.26308082521282e-15,1.3073885739297424e-09,3.792479392107249e-08,1.7959294015005154e-05,0.00022952023218769982,-49.1190911909119
1.7180894421214194e-05,2.6694473231543204e-15,1.175395141001415e-09,3.1813134098483665e-08,1.7213882953123128e-05,0.0002209794619084776,-48.9590895908959
1.6469806146511037e-05,2.182310213592286e-15,1.056355150813568e-09,2.6655471603507313e-08,1.6497517975447668e-05,0.00021272528075854131,-48.7990879908799
1.5785838631676573e-05,1.7828434968510725e-15,9.490364105673328e-10,2.2308120070154027e-08,1.580909578994014e-05,0.00020474936143672083,-48.63908639086391
1.5128061578913287e-05,1.4554978330315148e-15,8.523199473806901e-10,1.8648171906590243e-08,1.5147562072222755e-05,0.00019704356805837507,-48.47908479084791
1.4495572133249627e-05,1.187439553497799e-15,7.651900034865876e-10,1.5570632077547133e-08,1.45119079565181e-05,0.00018959995366470757,-48.319083190831904
1.38874942563712e-05,9.680840505652094e-16,6.867248767937435e-10,1.2985925575905728e-08,1.3901166907791983e-05,0.00018241075768961663,-48.1590815908159
1.3302978107381817e-05,7.887079618802454e-16,6.160885390406501e-10,1.0817733155658362e-08,1.3314411929865225e-05,0.0001754684033878856,-47.9990799907999
1.274119943073657e-05,6.421270879247512e-16,5.525229688699794e-10,9.00111493490726e-09,1.2750753069282475e-05,0.00016876549522838733,-47.8390783907839
1.2201358951572005e-05,5.22429103643144e-16,4.953411418941731e-10,7.48088602556426e-09,1.2209335179261893e-05,0.0001622948162558839,-47.67907679076791
1.1682681778641402e-05,4.2475191015316425e-16,4.439206242349736e-10,6.2102124434028795e-09,1.1689335912133791e-05,0.00015604932542488694,-47.519075190751906
1.1184416815047592e-05,3.4509997231761504e-16,3.9769772012099435e-10,5.149399234124099e-09,1.1189963912346938e-05,0.0001500221549089656,-47.3590735907359
1.0705836176948371e-05,2.801922471390324e-16,3.561621279375735e-10,4.2648460525205535e-09,1.0710457185409021e-05,0.00014420660738874604,-47.1990719907199
1.0246234620395492e-05,2.273363642316337e-16,3.188520626610734e-10,3.528148385332661e-09,1.0250081621070823e-05,0.0001385961533217787,-47.0390703907039
9.804928976452612e-06,1.843246049882961e-16,2.8534980589270884e-10,2.9153252447782378e-09,9.808129651687608e-06,0.00013318442819732653,-46.879068790687896
9.381257594722908e-06,1.4934796854750751e-16,2.5527764775181005e-10,2.4061565079551924e-09,9.383919029027962e-06,0.00012796522977902617,-46.71906719067191
8.974579795403392e-06,1.2092523314851273e-16,2.28294187710644e-10,1.98361516439074e-09,8.97679170487642e-06,0.00012293251533827696,-46.559065590655905
8.584275329969482e-06,9.784444026505588e-17,2.0409096406758658e-10,1.6333815850928243e-09,8.586112802616486e-06,0.00011808039888110976,-46.3990639906399
8.20974385057962e-06,7.911466233823705e-17,1.8238938417605654e-10,1.343428564840102e-09,8.21126966860775e-06,0.00011340314837117854,-46.2390623906239
7.850404388277773e-06,6.392627674109164e-17,1.6293792978687215e-10,1.1036673366232669e-09,7.851670993608109e-06,0.00010889518295143026,-46.0790607906079
7.505694840059303e-06,5.161827038951331e-17,1.4550961393337801e-10,9.056460328709522e-10,7.506745995757726e-06,0.00010455107016689968,-45.919059190591895
7.17507146485371e-06,4.165135092190561e-17,1.2989966770382566e-10,7.422931904519593e-10,7.175943657753517e-06,0.00010036552319098135,-45.75905759057591
6.858008388466557e-06,3.3585849808794164e-17,1.1592343701464649e-10,6.076998819537043e-10,6.858732011819112e-06,9.633339805743433e-05,-45.599055990559904
6.55399711751272e-06,2.7063577019085382e-17,1.0341447113193807e-10,4.969349194157253e-10,6.554597466930331e-06,9.244969090028147e-05,-45.4390543905439
6.262546062361365e-06,2.179293175166095e-17,9.22227861959825e-11,4.05888332167983e-10,6.2630441735015215e-06,8.870953520366376e-05,-45.2790527905279
5.983180069104324e-06,1.7536694096779733e-17,8.221328839419312e-11,3.3113898000419826e-10,5.98359342139026e-06,8.510819906362694e-05,-45.1190511905119
5.7154399605495826e-06,1.410202239262598e-17,7.326434270971493e-11,2.698427377106962e-10,5.715783067644105e-06,8.164108246371847e-05,-44.959049590495894
5.4588820862323055e-06,1.1332263897967758e-17,6.526647435397186e-11,2.1963818695196562e-10,5.459166990904944e-06,7.830371456618828e-05,-44.799047990479906
5.21307788142725e-06,9.100255065323958e-18,5.8121191079086833e-11,1.7856718563123743e-10,5.2133145698130605e-06,7.509175102049402e-05,-44.6390463904639
4.977613435138438e-06,7.302844555593126e-18,5.173991556714357e-11,1.4500806109584075e-10,4.977810183122404e-06,7.200097129073048e-05,-44.4790447904479
4.752089067033416e-06,5.856419177211816e-18,4.6043018014130876e-11,1.1761949907488112e-10,4.752252729556362e-06,6.902727600351045e-05,-44.3190431904319
4.536118913282577e-06,4.693251823641847e-18,4.0958939873100706e-11,9.529348136496758e-11,4.536255165708508e-06,6.616668431774818e-05,-44.159041590415896
4.329330521256504e-06,3.758522609027156e-18,3.64234004991375e-11,7.711586764625375e-11,4.329444060528408e-06,6.341533131771036e-05,-43.99903999039989
4.1313644530277374e-06,3.007890918718883e-18,3.2378679153376594e-11,6.23334253982941e-11,4.131459165135297e-06,6.076946543062243e-05,-43.839038390383905
3.941873897616827e-06,2.405517960930022e-18,2.8772965479348067e-11,5.0326291092020586e-11,3.941952996875804e-06,5.822544587003769e-05,-43.6790367903679
3.760524291916836e-06,1.9224574281657616e-18,2.5559772166884207e-11,4.058499953634629e-11,3.7605904366904615e-06,5.5779740106104334e-05,-43.5190351903519
3.586992950224274e-06,1.5353467172366598e-18,2.2697404070831893e-11,3.269134986192456e-11,3.587048338979742e-06,5.3428921363786384e-05,-43.3590335903359
3.4209687022996804e-06,1.2253433667854787e-18,2.0148478557816348e-11,2.6302489118391435e-11,3.4210151532685816e-06,5.1169666150025574e-05,-43.199031990319895
3.2621515398756715e-06,9.772614094712989e-19,1.787949231784415e-11,2.113769045939383e-11,3.2621905570594255e-06,4.89987518107609e-05,-43.03903039030389
3.1102522715257973e-06,7.788705820529895e-19,1.58604303020046e-11,1.696738467520453e-11,3.1102850993415533e-06,4.691305411865227e-05,-42.879028790287904
2.9649921858031023e-06,6.2032810517970415e-19,1.4064412835994389e-11,1.3604073395162954e-11,2.965019854289954e-06,4.490954489228779e-05,-42.7190271902719
2.8261027225533783e-06,4.937182960777626e-19,1.246737731455973e-11,1.0894811351696778e-11,2.8261260847425384e-06,4.298528964759314e-05,-42.5590255902559
2.6933251523040745e-06,3.92679826809089e-19,1.1047791206841068e-11,8.714995175512919e-12,2.6933449150908495e-06,4.1137445282093495e-05,-42.3990239902399
2.566410263626692e-06,3.1210416624431137e-19,9.786393399528833e-12,6.9632385779719974e-12,2.5664270132589813e-06,3.9363257792621094e-05,-42.239022390223894
2.4451180583670323e-06,2.4789179218637163e-19,8.665961175925368e-12,5.557149595377304e-12,2.4451322814780516e-06,3.766006002700257e-05,-42.07902079020789
2.3292174546349372e-06,1.967552523248995e-19,7.671100376596159e-12,4.429855790325899e-12,2.3292295555913012e-06,3.602526947020101e-05,-41.919019190191904
2.2184859974423633e-06,1.5606018872461877e-19,6.788056513211066e-12,3.527148761919077e-12,2.2184963126477945e-06,3.4456386065334205e-05,-41.7590175901759
2.1127095768763442e-06,1.236971025606132e-19,6.00454481322353e-12,2.8051407266183735e-12,2.1127183865620077e-06,3.295099006993807e-05,-41.5990159901599
2.0116821536911845e-06,9.797799144958501e-20,5.30959736086514e-12,2.228343909872692e-12,2.011689691632553e-06,3.1506739947789435e-05,-41.439014390143896
1.915205492202213e-06,7.75530965992408e-20,4.693425671076843e-12,1.768098561806413e-12,1.915211953726523e-06,3.01213702965573e-05,-41.279012790127894
1.8230889003619695e-06,6.134389678767853e-20,4.147297188858291e-12,1.4012880280650354e-12,1.8230944489472479e-06,2.8792689811500867e-05,-41.11901119011189
1.7351489768978821e-06,4.8489218384954664e-20,3.6634243483911356e-12,1.1092898530120483e-12,1.735153749612132e-06,2.7518579285388768e-05,-40.9590095900959
1.651209365389537e-06,3.8301925988090405e-20,3.2348649553733328e-12,8.771206934479413e-13,1.6512134773752242e-06,2.6296989644766944e-05,-40.7990079900799
1.5711005151623368e-06,3.0234141955069586e-20,2.85543277338814e-12,6.927401544078689e-13,1.571104063335295e-06,2.5125940022666272e-05,-40.6390063900639
1.494659448873626e-06,2.3849335822239412e-20,2.5196173018266226e-12,5.46484759797312e-13,1.4946625149757117e-06,2.4003515867792575e-05,-40.479004790047895
1.4217295366664695e-06,1.8799943150080752e-20,2.2225118298209377e-12,4.3060833897894665e-13,1.4217321897866571e-06,2.292786709021012e-05,-40.31900319003189
1.352160276766035e-06,1.480943155986115e-20,1.95974893867099e-12,3.389093144096469e-13,1.352162575424303e-06,2.1897206243488654e-05,-40.15900159001589
1.285807082392856e-06,1.165794086586901e-20,1.727442705144753e-12,2.6642885720838426e-13,1.28580907626443e-06,2.0909806743250155e-05,-39.9989999899999
1.2225310748673183e-06,9.170793470047832e-21,1.5221369305165895e-12,2.0920675685778814e-13,1.222532806211015e-06,1.9964001122016482e-05,-39.8389983899839
1.1621988827795274e-06,7.209308066007204e-21,1.3407587859366013e-12,1.640842287939766e-13,1.1622003876225492e-06,1.9058179320229922e-05,-39.6789967899679
1.1046824470988794e-06,5.6634603067717304e-21,1.18057732429693e-12,1.2854484394177238e-13,1.1046837562210535e-06,1.819078701328429e-05,-39.518995189951895
1.0498588320978427e-06,4.4460233987523545e-21,1.039166362731605e-12,1.0058637813653077e-13,1.049859971850588e-06,1.7360323974378276e-05,-39.35899358993589
9.976100419649659e-07,3.487893638957815e-21,9.143712887562523e-13,7.861770609468101e-14,9.97611034953964e-07,1.656534247297454e-05,-39.19899198991989
9.478228429824464e-07,2.734364001658359e-21,8.042793872861566e-13,6.137595364429122e-14,9.478237086377902e-07,1.580444570862126e-05,-39.03899038990389
9.003885911443504e-07,2.142155675086846e-21,7.071933257860363e-13,4.786001457052567e-14,9.003893461976928e-07,1.5076286279869918e-05,-38.8789887898879
8.5520306509223e-07,1.6770551153360822e-21,6.216074709881375e-13,3.7277269020602907e-14,8.552037239769718e-07,1.4379564687998551e-05,-38.718987189871896
8.121663042458091e-07,1.3120344804763496e-21,5.46186743318665e-13,2.900093749770608e-14,8.121668794334911e-07,1.3713027875229884e-05,-38.558985589855894
7.711824520071601e-07,1.0257576565966778e-21,4.797477447164144e-13,2.253599174085192e-14,7.711829542908976e-07,1.3075467797111062e-05,-38.39898398983989
7.321596039179949e-07,8.0139364134709235e-22,4.2124192220579074e-13,1.7491940860461058e-14,7.321600426518587e-07,1.246572002870535e-05,-38.23898238982389
6.950096606507747e-07,6.256747417360167e-22,3.6974055366488455e-13,1.356113420568095e-14,6.950100439524632e-07,1.1882662404226421e-05,-38.078980789807886
6.596481857153745e-07,4.88149624774034e-22,3.2442136395202103e-13,1.0501484979671665e-14,6.596485206382239e-07,1.132521368973066e-05,-37.9189791897919
6.259942677645441e-07,3.805913404382681e-22,2.8455659914235674e-13,8.122731640187914e-15,6.259945604438753e-07,1.0792332288467008e-05,-37.758977589775895
5.939703873825279e-07,2.9652850728318936e-22,2.49502404281449e-13,6.275526717737031e-15,5.939706431604592e-07,1.028301497847041e-05,-37.59897598975989
5.635022882427478e-07,2.3087430766436087e-22,2.1868936596854646e-13,4.842782324805401e-15,5.635025117748963e-07,9.796295681971047e-06,-37.43897438974389
5.345188525217902e-07,1.7963310086131702e-22,1.916140954057187e-13,3.732814448372405e-15,5.345190478687003e-07,9.33124426618074e-06,-37.27897278972789
5.06951980458599e-07,1.3966858508627613e-22,1.6783174044126177e-13,2.8739191369546152e-15,5.069521511642588e-07,8.886965375006482e-06,-37.118971189711885
4.807364739491456e-07,1.085207299287209e-22,1.469493267347029e-13,2.2100870211922498e-15,4.807366231085595e-07,8.462597291231663e-06,-36.9589695896959
4.558099240686453e-07,8.426132516196356e-23,1.2861983860149357e-13,1.6976215987658785e-15,4.5581005438610556e-07,8.057310828696241e-06,-36.798967989679895
4.3211260241488795e-07,6.538008329919576e-23,1.1253695947125863e-13,1.3024741061916695e-15,4.3211271625432156e-07,7.670308254000236e-06,-36.63896638966389
4.0958735616801036e-07,5.069489877427217e-23,9.843040031725998e-14,9.981458193288796e-16,4.095874555965565e-07,7.300822237246864e-06,-36.47896478964789
3.8817950676372057e-07,3.928119188365105e-23,8.606175197985286e-14,7.640390820910424e-16,3.8817959358951167e-07,6.948114831336685e-06,-36.31896318963189
3.6783675207875936e-07,3.04163193570878e-23,7.522080409749882e-14,5.841627287063065e-16,3.678368278837262e-07,6.611476479318345e-06,-36.158961589615885
3.4850907202909146e-07,2.3535870620429092e-23,6.572227945199052e-14,4.4611703017027975e-16,3.4850913819748794e-07,6.290225049297113e-06,-35.998959989599896
3.301486374831857e-07,1.8199333463975532e-23,5.740293799908558e-14,3.402988242643957e-16,3.3014869522642255e-07,5.983704896399395e-06,-35.838958389583894
3.1270972239448225e-07,1.4063140094205506e-23,5.01190097544963e-14,2.592798595956191e-16,3.1270977277277184e-07,5.6912859512881255e-06,-35.67895678956789
2.961486190590139e-07,1.0859522505001228e-23,4.374392009459772e-14,1.9732122598421072e-16,2.961486630002552e-07,5.41236283472165e-06,-35.51895518955189
2.804235564059339e-07,8.379937165022977e-24,3.8166274962696136e-14,1.4999456245286355e-16,2.8042359472220346e-07,5.146353997647938e-06,-35.358953589535886
2.6549462123061055e-07,6.462081048144583e-24,3.328807699129349e-14,1.1388693729236722e-16,2.6549465463257445e-07,4.892700886324685e-06,-35.198951989519884
2.5132368228171317e-07,4.9797282700977324e-24,2.902314670033051e-14,8.63712092935628e-17,2.513237113912311e-07,4.650867131955823e-06,-35.038950389503896
2.3787431711564196e-07,3.834780370438696e-24,2.5295725748527845e-14,6.542756758095114e-17,2.3787434247679527e-07,4.42033776433541e-06,-34.87894878948789
2.25111741633451e-07,2.9510526107013216e-24,2.2039241733638693e-14,4.950501964825953e-17,2.2511176372219776e-07,4.200618448991137e-06,-34.71894718947189
2.1300274221728791e-07,2.269420713785077e-24,1.9195216288286668e-14,3.741402118055644e-17,2.1300276144991822e-07,3.991234747320599e-06,-34.55894558945589
2.0151561038520197e-07,1.744032938408775e-24,1.671230022872202e-14,2.824335119617996e-17,2.0151562712574557e-07,3.791731399216187e-06,-34.398943989439886
1.9062007988503817e-07,1.3393557833180022e-24,1.4545421309088838e-14,2.1295838911498735e-17,1.9062009445175533e-07,3.6016716276765488e-06,-34.23894238942388
1.8028726614992715e-07,1.0278715312876937e-24,1.2655031736048679e-14,1.6038729677133232e-17,1.8028727882099762e-07,3.420636464905695e-06,-34.078940789407895
1.704896080397221e-07,7.882851114981308e-25,1.1006444027976248e-14,1.2065404053789242e-17,1.7048961905823154e-07,3.248224099404165e-06,-33.91893918939189
1.6120081179455724e-07,6.041286281781731e-25,9.569245077517646e-15,9.06589033184016e-18,1.6120082137286822e-07,3.084049243560558e-06,-33.75893758937589
1.5239579712845238e-07,4.626761517026133e-25,8.316779412352136e-15,6.8041791530667766e-18,1.5239580545203598e-07,2.9277425212555807e-06,-33.59893598935989
1.4405064539270727e-07,3.5410040134307673e-25,7.225693661139608e-15,5.100793087871888e-18,1.4405065262350173e-07,2.7789498749957063e-06,-33.438934389343885
1.361425497405696e-07,2.7081787702618537e-25,6.2755351329876524e-15,3.8194107117872685e-18,1.3614255601992413e-07,2.6373319920980645e-06,-33.27893278932788
1.2864976722642057e-07,2.069806972214708e-25,5.448398221112008e-15,2.856614949936809e-18,1.286497726776754e-07,2.502563749453385e-06,-33.118931189311894
1.2155157277442027e-07,1.5808256273104906e-25,4.728613055258872e-15,2.134045799408626e-18,1.2155157750516736e-07,2.3743336763992723e-06,-32.95892958929589
1.1482821495330131e-07,1.2065343646081889e-25,4.10247146238597e-15,1.5924010480790168e-18,1.1482821905736518e-07,2.2523434352418018e-06,-32.79892798927989
1.0846087349562715e-07,9.202313621396636e-26,3.5579858595388856e-15,1.1868555413834397e-18,1.0846087705479987e-07,2.1363073189692037e-06,-32.63892638926389
1.0243161850155079e-07,7.013841872231178e-26,3.0846772044362417e-15,8.835679557191074e-19,1.0243162158711157e-07,2.025951765707623e-06,-32.478924789247884
9.672337126869497e-08,5.342155392563424e-26,2.6733885747850217e-15,6.570202273004238e-19,9.672337394274056e-08,1.921014889475373e-06,-32.31892318923188
9.131986669142854e-08,4.0661057438328097e-26,2.316121342891598e-15,4.879936955712067e-19,9.131986900803788e-08,1.821246026798409e-06,-32.15892158921589
8.620561717436589e-08,3.092732989760088e-26,2.0058912631646852e-15,3.6203150909337155e-19,8.620561918061918e-08,1.7264052987565712e-06,-31.99891998919989
8.136587800651822e-08,2.3507572871289742e-26,1.7366021014987516e-15,2.682719202708497e-19,8.136587974338859e-08,1.6362631880370124e-06,-31.83891838918389
7.678661414401617e-08,1.7855612861892952e-26,1.5029347116375073e-15,1.9856410987828198e-19,7.678661564714944e-08,1.550600130578e-06,-31.678916789167886
7.2454468350879e-08,1.3553246503566227e-26,1.3002497083408725e-15,1.467989592706019e-19,7.245446965127551e-08,1.4692061213935543e-06,-31.518915189151883
6.835673064874987e-08,1.0280483001594037e-26,1.12450210398942e-15,1.0840314648165157e-19,6.835673177336039e-08,1.3918803341764348e-06,-31.35891358913588
6.448130902800107e-08,7.792652452132582e-27,9.721664672587764e-16,7.995718348893944e-20,6.448131000024749e-08,1.3184307542843374e-06,-31.198911989119892
6.081670137401637e-08,5.902808601041404e-27,8.401713324513046e-16,5.8907389208814e-20,6.081670221424661e-08,1.2486738247213046e-06,-31.03891038910389
5.735196856388135e-08,4.468211288619004e-27,7.2584173844936645e-16,4.334896679342927e-20,5.7351969289766434e-08,1.182434104734168e-06,-30.878908789087887
5.407670869005892e-08,3.379950246629354e-27,6.268489092520064e-16,3.1862834978731795e-20,5.407670931693969e-08,1.119543940650602e-06,-30.718907189071885
5.0981032368992105e-08,2.5549859685954515e-27,5.411662056343724e-16,2.3393045523159623e-20,5.0981032910181704e-08,1.0598431485935654e-06,-30.558905589055883
4.8055539093874384e-08,1.9300490106679754e-27,4.6703058136961785e-16,1.7154805786413047e-20,4.805553956092212e-08,1.003178708713874e-06,-30.39890398903988
4.5291294592125277e-08,1.4569671548091755e-27,4.029088692286539e-16,1.2565550891222266e-20,4.529129499504671e-08,9.494044705903868e-07,-30.23890238902389
4.267980914935489e-08,1.0990888226832567e-27,3.474683030045553e-16,9.193353276005821e-21,4.267980949683238e-08,8.983808694547321e-07,-30.07890078900789
4.021301686284493e-08,8.285475304314e-28,2.995507533234082e-16,6.7183566194040054e-21,4.02130171624024e-08,8.499746529050513e-07,-29.918899188991887
3.788325578875437e-08,6.241711183110258e-28,2.581502180921768e-16,4.903981745870472e-21,3.788325604690949e-08,8.040586177805927e-07,-29.758897588975884
3.568324894844952e-08,4.698849302998373e-28,2.2239316406714163e-16,3.575455069154687e-21,3.568324917084626e-08,7.605113568765843e-07,-29.59889598895988
3.3606086160487674e-08,3.5349312426797373e-28,1.9152136506310621e-16,2.6038172080823227e-21,3.360608635201164e-08,7.19217015186172e-07,-29.43889438894388
3.164520666590534e-08,2.657492396872102e-28,1.6487692552830458e-16,1.8940277986327094e-21,3.164520683078416e-08,6.800650553635129e-07,-29.278892788927877
2.9794382515550863e-08,1.9964787705121145e-28,1.4188921626030873e-16,1.3761281945695367e-21,2.9794382657441455e-08,6.429500321096173e-07,-29.11889118891189
2.8047702689254223e-08,1.4988527473692372e-28,1.220634825348848e-16,9.986840757773323e-22,2.8047702811318705e-08,6.077713751896062e-07,-28.958889588895886
2.63995579176709e-08,1.124488054077528e-28,1.0497091439547838e-16,7.239257840577239e-22,2.6399558022642537e-08,5.744331807974286e-07,-28.798887988879883
2.4844626178628768e-08,8.430480532639961e-29,9.023999477749285e-17,5.241512832110224e-22,2.4844626268869286e-08,5.42844010991087e-07,-28.63888638886388
2.337785884079797e-08,6.316135227662366e-29,7.754896393663766e-17,3.7906697503862247e-22,2.3377858918347315e-08,5.129167009285931e-07,-28.47888478884788
2.199446742844677e-08,4.728812728879598e-29,6.66192586842203e-17,2.738242670636407e-22,2.19944674950663e-08,4.845681736418069e-07,-28.318883188831876
2.0689910981979454e-08,3.537972208245716e-29,5.720980253141356e-17,1.9757164061820242e-22,2.0689911039189455e-08,4.577192620922343e-07,-28.158881588815888
1.9459883989845537e-08,2.6451988473377537e-29,4.911203829876031e-17,1.423881890677395e-22,1.9459884038957718e-08,4.322945382596593e-07,-27.998879988799885
1.8300304868292838e-08,1.9763499108066315e-29,4.21456083121662e-17,1.0249909125298784e-22,1.830030491043855e-08,4.0822214902126937e-07,-27.838878388783883
1.7207304966277383e-08,1.4756078540695528e-29,3.615459920834252e-17,7.369919623439169e-23,1.7207305002432054e-08,3.854336585854815e-07,-27.67887678876788
1.6177218073676656e-08,1.1009806438568237e-29,3.1004278810806026e-17,5.2930034365339524e-23,1.6177218104680987e-08,3.638638972512638e-07,-27.518875188751878
1.520657041174741e-08,8.208995458831445e-30,2.6578261688188404e-17,3.796979815902669e-23,1.520657043832571e-08,3.434508162701793e-07,-27.358873588735875
1.4292071085550982e-08,6.116485535435802e-30,2.2776048025262384e-17,2.7206400636046445e-23,1.4292071108327056e-08,3.241353485946874e-07,-27.198871988719887
1.343060297881814e-08,4.554235629540222e-30,1.9510887460922637e-17,1.9471552401542025e-23,1.3430602998329048e-08,3.058612753024527e-07,-27.038870388703884
1.2619214072461534e-08,3.388680676881953e-30,1.6707925697162283e-17,1.3919599969744104e-23,1.2619214089169472e-08,2.885750974925663e-07,-26.878868788687882
1.1855109168646406e-08,2.5196916789545e-30,1.4302597065452063e-17,9.93915856385707e-24,1.1855109182949013e-08,2.722259134555279e-07,-26.71886718867188
1.1135642003021485e-08,1.8722582946254996e-30,1.2239230945666249e-17,7.08874202859205e-24,1.1135642015260723e-08,2.5676530092478394e-07,-26.558865588655877
1.045830772837228e-08,1.390227038475594e-30,1.0469844050384721e-17,5.04993063471214e-24,1.0458307738842129e-08,2.421472042233578e-07,-26.398863988639874
9.8207357536063e-09,1.0315904294756856e-30,8.953094186794559e-18,3.593340245963964e-24,9.820735762559398e-09,2.2832782612480237e-07,-26.238862388623886
9.22068292259824e-09,7.649454818812241e-31,7.653374253391588e-18,2.5539239363424278e-24,9.220682930251618e-09,2.1526552425320608e-07,-26.078860788607884
8.656027018030352e-09,5.668331868319316e-31,6.5400279755436164e-18,1.813068712315941e-24,8.656027024570381e-09,2.0292071185251254e-07,-25.91885918859188
8.124760575940825e-09,4.1974125892301925e-31,5.586671282078806e-18,1.285633725123713e-24,8.124760581527498e-09,1.9125576276059677e-07,-25.75885758857588
7.624984997261096e-09,3.106058694200753e-31,4.77060531786124e-18,9.10577547425113e-25,7.624985002031703e-09,1.8023492042888412e-07,-25.598855988559876
7.154904943163968e-09,2.296885053138859e-31,4.072308912913882e-18,6.441890028420051e-25,7.154904947236278e-09,1.698242108332791e-07,-25.438854388543874
6.712823001572578e-09,1.6973463508137055e-31,3.474999920506434e-18,4.552043081826859e-25,6.712823005047579e-09,1.599913591272056e-07,-25.278852788527885
6.297134612687519e-09,1.2534392395886482e-31,2.9642562241096913e-18,3.212891864553604e-25,6.297134615651775e-09,1.5070570989237727e-07,-25.118851188511883
5.906323241880923e-09,9.249914272826352e-32,2.5276884219667978e-18,2.265074767160261e-25,5.906323244408612e-09,1.4193815084768844e-07,-24.95884958849588
5.538955788778315e-09,6.821403427959792e-32,2.154657250808715e-18,1.5950182748791645e-25,5.538955790932972e-09,1.3366103988121017e-07,-24.798847988479878
5.193678221808169e-09,5.027028743543009e-32,1.8360297267333116e-18,1.1218775893766313e-25,5.193678223644199e-09,1.2584813527481022e-07,-24.638846388463875
4.869211427938908e-09,3.7021209884214914e-32,1.5639687787800174e-18,7.881737560427047e-26,4.869211429502876e-09,1.1847452899531226e-07,-24.478844788447873
4.564347267747812e-09,2.724529113795133e-32,1.3317518444327478e-18,5.530891709201548e-26,4.564347269079564e-09,1.1151658293037588e-07,-24.318843188431885
4.277944826377644e-09,2.0037055647896077e-32,1.1336144994406742e-18,3.8767253026762365e-26,4.277944827511259e-09,1.0495186795148057e-07,-24.158841588415882
4.008926851330596e-09,1.472576825678213e-32,9.646157185608745e-19,2.714135904984243e-26,4.0089268522952115e-09,9.875910569045042e-08,-23.99883998839988
3.756276368430526e-09,1.0814927809441224e-32,8.205218192475295e-19,1.8979940202940564e-26,3.7562763692510475e-09,9.29181129199007e-08,-23.838838388383877
3.5190334676507644e-09,7.937265252205392e-33,6.9770653580632355e-19,1.3257290638908222e-26,3.519033468348471e-09,8.740974843185856e-08,-23.678836788367875
3.2962922508582407e-09,5.821297159524703e-33,5.930650148438428e-19,9.249354032480914e-27,3.2962922514513056e-09,8.221586231253772e-08,-23.518835188351872
3.087197933863947e-09,4.266485268816186e-33,5.039398207375251e-19,6.4456202741886694e-27,3.087197934367887e-09,7.73192475148889e-08,-23.358833588335884
2.890944095497524e-09,3.1248008035576865e-33,4.280572982312723e-19,4.486572792670614e-27,2.8909440959255813e-09,7.270359363408272e-08,-23.19883198831988
2.7067700667377893e-09,2.28705195597065e-33,3.634728632798215e-19,3.1193306182888055e-27,2.706770067101262e-09,6.835344279451994e-08,-23.03883038830388
2.533958453234194e-09,1.672751122229776e-33,3.0852398740936695e-19,2.1662310966578886e-27,2.533958453542718e-09,6.42541475602855e-08,-22.878828788287876
2.3718327848446765e-09,1.2226108202645233e-33,2.6178980905042854e-19,1.5026050765158062e-27,2.3718327851064664e-09,6.039183078421448e-08,-22.718827188271874
2.2197552860958056e-09,8.929903096470111e-34,2.220564509418911e-19,1.0410740124417958e-27,2.2197552863178623e-09,5.675334731385885e-08,-22.55882558825587
2.077124761739033e-09,6.517887545479344e-34,1.8828724877362444e-19,7.204685829982552e-28,2.0771247619273206e-09,5.332624747570715e-08,-22.398823988239883
1.9433745918360056e-09,4.754102995438469e-34,1.5959720531645217e-19,4.980181578718305e-28,1.9433745919956027e-09,5.009874226194114e-08,-22.23882238822388
1.8179708310532311e-09,3.465228800850399e-34,1.3523107863287594e-19,3.4385234901342596e-28,1.8179708311884621e-09,4.705967014689094e-08,-22.078820788207878
1.7004104070850011e-09,2.524043587083473e-34,1.145445945278323e-19,2.3713491432913334e-28,1.7004104071995458e-09,4.41984654631044e-08,-21.918819188191875
1.5902194133517147e-09,1.8372294204599861e-34,9.698834388874878e-20,1.6334870496325463e-28,1.590219413448703e-09,4.1505128269642736e-08,-21.758817588175873
1.4869514913405317e-09,1.3363848339280934e-34,8.209398645728578e-20,1.1239126978699896e-28,1.4869514914226257e-09,3.897019564780407e-08,-21.59881598815987
1.3901862981653347e-09,9.714071401370746e-35,6.946243515694114e-20,7.724069059227248e-29,1.3901862982347972e-09,3.658471436199245e-08,-21.438814388143882
1.2995280551251856e-09,7.056228732475004e-35,5.875374048751384e-20,5.302203673832811e-29,1.2995280551839394e-09,3.434021482587993e-08,-21.27881278812788
1.2146041732338246e-09,5.122071248427133e-35,4.967843365773612e-20,3.6354933332718747e-29,1.214604173283503e-09,3.222868631636521e-08,-21.118811188111877
1.1350639518784383e-09,3.715524985949197e-35,4.1990120902014273e-20,2.4898144717840172e-29,1.1350639519204284e-09,3.024255338009893e-08,-20.958809588095875
1.060577346943608e-09,2.693372137339026e-35,3.547915054518479e-20,1.7032065134413816e-29,1.0605773469790872e-09,2.837465337954709e-08,-20.798807988079872
9.908338049069654e-10,1.9510758168246438e-35,2.996719947228949e-20,1.1637623952400844e-29,9.908338049369325e-10,2.6618215127687222e-08,-20.63880638806387
9.25541159576023e-10,1.412386425323203e-35,2.5302647276504734e-20,7.942514532743507e-30,9.255411596013256e-10,2.4966838562478905e-08,-20.47880478804788
8.644245882920667e-10,1.0217261990708231e-35,2.135662497165154e-20,5.414375908933231e-30,8.644245883134234e-10,2.3414475414230438e-08,-20.31880318803188
8.072256245767185e-10,7.386133117722416e-36,1.8019641177038846e-20,3.68668030786158e-30,8.072256245947381e-10,2.1955410820895974e-08,-20.158801588015876
7.537012243397204e-10,5.335822049272889e-36,1.5198702467088522e-20,2.5073747137077914e-30,7.537012243549191e-10,2.0584245848176938e-08,-19.998799987999874
7.036228829037531e-10,3.8520077315156175e-36,1.2814856433795564e-20,1.7033335177178744e-30,7.03622882916568e-10,1.929588087308185e-08,-19.83879838798387
6.567758002330428e-10,2.7789105587862123e-36,1.0801096202497132e-20,1.1557844073266973e-30,6.567758002438439e-10,1.8085499791313128e-08,-19.67879678796787
6.129580918780487e-10,2.0033811986678634e-36,9.10057390044148e-21,7.833406388271259e-31,6.129580918871493e-10,1.6948555010500263e-08,-19.518795187951866
5.719800432681235e-10,1.443292066640202e-36,7.665078101895326e-21,5.302994450104614e-31,5.719800432757886e-10,1.5880753192893763e-08,-19.358793587935878
5.336634050989247e-10,1.0390739599166045e-36,6.453736734462843e-21,3.585819093745454e-31,5.336634051053784e-10,1.487804171266487e-08,-19.198791987919876
4.978407276706233e-10,7.47550099931022e-37,5.4319124769807174e-21,2.4218780230126863e-31,4.978407276760552e-10,1.3936595794439607e-08,-19.038790387903873
4.6435473213774395e-10,5.374471355731449e-37,4.5702624375558886e-21,1.6338524932404463e-31,4.643547321423142e-10,1.3052806301111295e-08,-18.87878878788787
4.3305771673125734e-10,3.86129344043434e-37,3.843937981230644e-21,1.1009563790013092e-31,4.330577167351013e-10,1.2223268140350978e-08,-18.718787187871868
4.0381099610915367e-10,2.772244100276911e-37,3.231904075392754e-21,7.41009997025661e-32,4.0381099611238557e-10,1.1444769260549565e-08,-18.558785587855866
3.7648437208265963e-10,1.9889860380563007e-37,2.7163605193074688e-21,4.98166718860376e-32,3.76484372085376e-10,1.071428020819449e-08,-18.398783987839877
3.5095563405238555e-10,1.4260462376767838e-37,2.2822499925586176e-21,3.345199638944848e-32,3.509556340546678e-10,1.002894421990198e-08,-18.238782387823875
3.2711008757155815e-10,1.0217322125730086e-37,1.9168400565140443e-21,2.2437065737294613e-32,3.27110087573475e-10,9.386067823499004e-09,-18.078780787807872
3.0484010953276463e-10,7.315468933960726e-38,1.609368125457713e-21,1.5031653894661772e-32,3.04840109534374e-10,8.783111923673905e-09,-17.91877918779187
2.840447285500534e-10,5.234182498107647e-38,1.3507400347558289e-21,1.0058753437409252e-32,2.8404472855140415e-10,8.217683348798522e-09,-17.758777587775867
2.646292291803616e-10,3.7424599160402803e-38,1.1332742110461812e-21,6.723234294271387e-33,2.646292291814949e-10,7.687526836563827e-09,-17.598775987759865
2.465047786967711e-10,2.6740348316170764e-38,9.504846272210036e-22,4.488580488725761e-33,2.465047786977216e-10,7.1905174370689036e-09,-17.438774387743877
2.2958807519163088e-10,1.9093193262762958e-38,7.968967315111438e-22,2.993205100887956e-33,2.2958807519242776e-10,6.7246533129629155e-09,-17.278772787727874
2.1380101584985283e-10,1.3623593699101113e-38,6.678913998280052e-22,1.993703742230062e-33,2.1380101585052073e-10,6.288048917158983e-09,-17.11877118771187
1.990703842921517e-10,9.71418574856388e-39,5.595726947657462e-22,1.3264212151402623e-33,1.9907038429271126e-10,5.8789285295216795e-09,-16.95876958769587
1.8532755594450735e-10,6.921858707156239e-39,4.686558414141995e-22,8.814526402527476e-34,1.85327555944976e-10,5.4956201347770285e-09,-16.798767987679867
1.7250822044407518e-10,4.928793947006324e-39,3.9237236490451264e-22,5.850772271679971e-34,1.7250822044446755e-10,5.136549624706212e-09,-16.638766387663864
1.6055212014298402e-10,3.507197322077873e-39,3.283897907265996e-22,3.879038535779983e-34,1.6055212014331241e-10,4.80023530846242e-09,-16.478764787647876
1.4940280382030909e-10,2.4939132653185802e-39,2.7474369773297954e-22,2.5688082164708175e-34,1.4940280382058384e-10,4.485282715596808e-09,-16.318763187631873
1.390073947589729e-10,1.772164757673165e-39,2.297802451604839e-22,1.6991665790380038e-34,1.3900739475920268e-10,4.190379677095245e-09,-16.15876158761587
1.2931637238845914e-10,1.2584282297134741e-39,1.921075773381305e-22,1.1226307169674105e-34,1.2931637238865125e-10,3.9142916704117055e-09,-15.998759987599868
1.202833667363013e-10,8.930060771710378e-40,1.6055475017999247e-22,7.408573140672459e-35,1.2028336673646184e-10,3.6558574151414222e-09,-15.838758387583866
1.1186496497125377e-10,6.332598923161581e-40,1.34137028225118e-22,4.883474368059598e-35,1.118649649713879e-10,3.413984706604354e-09,-15.678756787567863
1.0402052935904986e-10,4.487569183908566e-40,1.1202657513563157e-22,3.215288449783876e-35,1.040205293591619e-10,3.187646475211885e-09,-15.518755187551875
9.671202598774444e-11,3.1779125154400186e-40,9.352770868943363e-23,2.1144998383976777e-35,9.671202598783796e-11,2.9758770600643034e-09,-15.358753587535872
8.990386365400175e-11,2.248921641239526e-40,7.805601724561064e-23,1.3889674241247143e-35,8.99038636540798e-11,2.7777686857783334e-09,-15.19875198751987
8.35627423342186e-11,1.5904071368517389e-40,6.512074169830785e-23,9.113247228616424e-36,8.356274233428372e-11,2.592468132069718e-09,-15.038750387503868
7.765751069541663e-11,1.1239420355520116e-40,5.430991787070032e-23,5.972428128433198e-36,7.765751069547093e-11,2.419173586120552e-09,-14.878748787487865
7.215903213017336e-11,7.937452117075687e-41,4.5277851526530243e-23,3.909537653491744e-36,7.215903213021863e-11,2.257131668241983e-09,-14.718747187471863
6.704005882783588e-11,5.601701060693813e-41,3.7734563733743614e-23,2.556210158143376e-36,6.704005882787362e-11,2.1056346218034425e-09,-14.558745587455874
6.227511342071094e-11,3.9505753067398886e-41,3.143689994450918e-23,1.669415342532532e-36,6.227511342074237e-11,1.9640176588393683e-09,-14.398743987439872
5.784037776911741e-11,2.7842124234740357e-41,2.6181043343087988e-23,1.0890026402738075e-36,5.784037776914359e-11,1.8316564531646683e-09,-14.23874238742387
5.3713588473005964e-11,1.9608573263181346e-41,2.1796213023175115e-23,7.095616793881389e-37,5.371358847302776e-11,1.707964773231148e-09,-14.078740787407867
4.9873938720514745e-11,1.3800385854813797e-41,1.8139361467986585e-23,4.61793761073292e-37,4.9873938720532885e-11,1.592392247340585e-09,-13.918739187391864
4.630198610526748e-11,9.705950440759406e-42,1.5090714537601324e-23,3.001944491717077e-37,4.6301986105282566e-11,1.4844222541959527e-09,-13.758737587375862
4.297956606459375e-11,6.82160417160033e-42,1.25500215009356e-23,1.949188955468781e-37,4.29795660646063e-11,1.38356993212108e-09,-13.598735987359873
